Date,Adj Close
2017-01-03,67.9432373046875
2017-01-04,69.06912231445312
2017-01-05,68.36196899414062
2017-01-06,68.38985443115234
2017-01-09,68.55736541748047
2017-01-10,67.75714874267578
2017-01-11,67.96186065673828
2017-01-12,68.23170471191406
2017-01-13,68.38985443115234
2017-01-17,68.24100494384766
2017-01-18,68.37128448486328
2017-01-19,67.6734390258789
2017-01-20,66.65921020507812
2017-01-23,67.41289520263672
2017-01-24,68.42709350585938
2017-01-25,68.32474517822266
2017-01-26,68.2223892211914
2017-01-27,68.33404541015625
2017-01-30,67.97892761230469
2017-01-31,68.19387817382812
2017-02-01,69.10040283203125
2017-02-02,68.53031158447266
2017-02-03,68.95085144042969
2017-02-06,68.54900360107422
2017-02-07,67.9696044921875
2017-02-08,68.73592376708984
2017-02-09,68.75459289550781
2017-02-10,69.89473724365234
2017-02-13,69.55830383300781
2017-02-14,68.99757385253906
2017-02-15,68.4088134765625
2017-02-16,69.3433609008789
2017-02-17,69.06298828125
2017-02-21,69.70783233642578
2017-02-22,69.39942932128906
2017-02-23,69.26860046386719
2017-02-24,69.49288940429688
2017-02-27,69.60503387451172
2017-02-28,69.63306427001953
2017-03-01,71.08161163330078
2017-03-02,70.84796905517578
2017-03-03,71.06292724609375
2017-03-06,70.69844818115234
2017-03-07,70.53023529052734
2017-03-08,70.96947479248047
2017-03-09,70.8853530883789
2017-03-10,71.76383972167969
2017-03-13,71.72647094726562
2017-03-14,71.52085876464844
2017-03-15,72.18437957763672
2017-03-16,71.94142150878906
2017-03-17,72.03486633300781
2017-03-20,72.74510955810547
2017-03-21,71.7451400756836
2017-03-22,71.8199234008789
2017-03-23,72.10961151123047
2017-03-24,71.60497283935547
2017-03-27,71.60497283935547
2017-03-28,72.02550506591797
2017-03-29,71.99747467041016
2017-03-30,71.82925415039062
2017-03-31,71.95073699951172
2017-04-03,71.44609069824219
2017-04-04,71.71710968017578
2017-04-05,71.10029602050781
2017-04-06,71.52085876464844
2017-04-07,71.17507934570312
2017-04-10,71.85729217529297
2017-04-11,71.88534545898438
2017-04-12,71.24047088623047
2017-04-13,70.83863067626953
2017-04-17,72.21241760253906
2017-04-18,72.49278259277344
2017-04-19,72.4740982055664
2017-04-20,72.7264175415039
2017-04-21,72.88529968261719
2017-04-24,73.17501068115234
2017-04-25,73.57687377929688
2017-04-26,74.14693450927734
2017-04-27,73.63291931152344
2017-04-28,75.04408264160156
2017-05-01,74.8095474243164
2017-05-02,75.25050354003906
2017-05-03,75.4850845336914
2017-05-04,76.36709594726562
2017-05-05,76.8550033569336
2017-05-08,77.41796112060547
2017-05-09,77.38980102539062
2017-05-10,77.7557373046875
2017-05-11,77.43670654296875
2017-05-12,77.3428955078125
2017-05-15,77.53054809570312
2017-05-16,77.6806869506836
2017-05-17,77.2021484375
2017-05-18,77.07079315185547
2017-05-19,77.27720642089844
2017-05-22,77.72756958007812
2017-05-23,78.05599975585938
2017-05-24,78.24366760253906
2017-05-25,78.95674133300781
2017-05-26,79.1631851196289
2017-05-30,79.32266998291016
2017-05-31,79.763671875
2017-06-01,80.93653106689453
2017-06-02,81.0022201538086
2017-06-05,80.55183410644531
2017-06-06,80.20467376708984
2017-06-07,80.4017105102539
2017-06-08,79.98886108398438
2017-06-09,80.36416625976562
2017-06-12,80.1671371459961
2017-06-13,80.86145782470703
2017-06-14,80.92713928222656
2017-06-15,80.90837860107422
2017-06-16,80.64566802978516
2017-06-19,81.39629364013672
2017-06-20,81.52766418457031
2017-06-21,81.63086700439453
2017-06-22,81.46195983886719
2017-06-23,81.44319915771484
2017-06-26,81.76222229003906
2017-06-27,81.03975677490234
2017-06-28,81.565185546875
2017-06-29,81.1523208618164
2017-06-30,81.49950408935547
2017-07-03,81.7059326171875
2017-07-05,81.90296936035156
2017-07-06,81.9217300415039
2017-07-07,82.65357208251953
2017-07-10,82.85064697265625
2017-07-11,82.7286605834961
2017-07-12,83.48866271972656
2017-07-13,83.16027069091797
2017-07-14,83.910888671875
2017-07-17,84.24866485595703
2017-07-18,84.2017593383789
2017-07-19,84.53015899658203
2017-07-20,84.16423034667969
2017-07-21,83.98596954345703
2017-07-24,84.24020385742188
2017-07-25,83.51513671875
2017-07-26,82.92189025878906
2017-07-27,82.86539459228516
2017-07-28,77.50739288330078
2017-07-31,76.2079086303711
2017-08-01,77.69571685791016
2017-08-02,77.45088195800781
2017-08-03,77.45088195800781
2017-08-04,77.55448913574219
2017-08-07,77.91229248046875
2017-08-08,77.91229248046875
2017-08-09,77.6674575805664
2017-08-10,76.75408172607422
2017-08-11,77.3473129272461
2017-08-14,78.0723876953125
2017-08-15,77.92172241210938
2017-08-16,78.67505645751953
2017-08-17,77.33789825439453
2017-08-18,77.3567123413086
2017-08-21,76.73523712158203
2017-08-22,77.32848358154297
2017-08-23,76.8482666015625
2017-08-24,76.34917449951172
2017-08-25,77.58271789550781
2017-08-28,77.0836410522461
2017-08-29,77.21548461914062
2017-08-30,78.1288833618164
2017-08-31,78.73155212402344
2017-09-01,78.98580169677734
2017-09-05,78.39253997802734
2017-09-06,78.01587677001953
2017-09-07,78.73155212402344
2017-09-08,78.92929077148438
2017-09-11,80.1534423828125
2017-09-12,80.22876739501953
2017-09-13,79.56961059570312
2017-09-14,79.91802978515625
2017-09-15,79.7673568725586
2017-09-18,80.45477294921875
2017-09-19,80.56775665283203
2017-09-20,81.0950927734375
2017-09-21,81.12334442138672
2017-09-22,80.71843719482422
2017-09-25,81.69774627685547
2017-09-26,81.6883316040039
2017-09-27,81.49059295654297
2017-09-28,81.99906921386719
2017-09-29,81.27400970458984
2017-10-02,82.75240325927734
2017-10-03,83.27027893066406
2017-10-04,82.9972152709961
2017-10-05,82.9972152709961
2017-10-06,83.41156005859375
2017-10-09,83.29855346679688
2017-10-10,83.3079605102539
2017-10-11,83.20439147949219
2017-10-12,83.32681274414062
2017-10-13,83.65635681152344
2017-10-16,83.75056457519531
2017-10-17,83.78821563720703
2017-10-18,83.43037414550781
2017-10-19,83.46805572509766
2017-10-20,83.99536895751953
2017-10-23,83.83528137207031
2017-10-24,83.9200439453125
2017-10-25,83.32681274414062
2017-10-26,83.75056457519531
2017-10-27,82.79947662353516
2017-10-30,81.41524505615234
2017-10-31,82.29425048828125
2017-11-01,82.61559295654297
2017-11-02,81.85002899169922
2017-11-03,82.1713638305664
2017-11-06,81.14115142822266
2017-11-07,81.0182876586914
2017-11-08,81.02774047851562
2017-11-09,80.11094665527344
2017-11-10,80.25273132324219
2017-11-13,80.8954086303711
2017-11-14,80.91432189941406
2017-11-15,80.79145050048828
2017-11-16,81.38690185546875
2017-11-17,80.95213317871094
2017-11-20,80.78199005126953
2017-11-21,81.7933120727539
2017-11-22,81.14115142822266
2017-11-24,81.51919555664062
2017-11-27,81.98233795166016
2017-11-28,82.14300537109375
2017-11-29,82.75736236572266
2017-11-30,83.56074523925781
2017-12-01,82.79515838623047
2017-12-04,83.22992706298828
2017-12-05,84.11840057373047
2017-12-06,83.33392333984375
2017-12-07,83.53239440917969
2017-12-08,83.07872009277344
2017-12-11,82.49272918701172
2017-12-12,81.68934631347656
2017-12-13,81.93508911132812
2017-12-14,81.63263702392578
2017-12-15,82.20919036865234
2017-12-18,81.82164764404297
2017-12-19,81.83111572265625
2017-12-20,81.59483337402344
2017-12-21,81.05610656738281
2017-12-22,81.18841552734375
2017-12-26,80.7063980102539
2017-12-27,80.92377471923828
2017-12-28,81.99180603027344
2017-12-29,81.54756927490234
2018-01-02,82.23753356933594
2018-01-03,82.40766143798828
2018-01-04,81.29237365722656
2018-01-05,82.14300537109375
2018-01-08,82.41709899902344
2018-01-09,81.65155029296875
2018-01-10,80.97102355957031
2018-01-11,81.51919555664062
2018-01-12,81.81221771240234
2018-01-16,81.5097427368164
2018-01-17,82.07685852050781
2018-01-18,82.45491790771484
2018-01-19,83.74977111816406
2018-01-22,82.66284942626953
2018-01-23,82.79515838623047
2018-01-24,83.36225891113281
2018-01-25,84.5248031616211
2018-01-26,84.25069427490234
2018-01-29,82.91806030273438
2018-01-30,83.18363952636719
2018-01-31,82.92752838134766
2018-02-01,82.37732696533203
2018-02-02,81.39079284667969
2018-02-05,79.09516143798828
2018-02-06,79.48407745361328
2018-02-07,79.5409927368164
2018-02-08,77.19792938232422
2018-02-09,77.9378433227539
2018-02-12,78.35521697998047
2018-02-13,85.10934448242188
2018-02-14,86.00102233886719
2018-02-15,86.48481750488281
2018-02-16,87.11090850830078
2018-02-20,86.3804702758789
2018-02-21,85.52674865722656
2018-02-22,85.9535903930664
2018-02-23,86.31407165527344
2018-02-26,86.1148452758789
2018-02-27,84.90061950683594
2018-02-28,84.82473754882812
2018-03-01,84.42632293701172
2018-03-02,85.07139587402344
2018-03-05,85.75438690185547
2018-03-06,86.10536193847656
2018-03-07,85.50774383544922
2018-03-08,85.3275146484375
2018-03-09,86.20022583007812
2018-03-12,86.1148452758789
2018-03-13,85.84923553466797
2018-03-14,85.44135284423828
2018-03-15,85.64055633544922
2018-03-16,85.5172348022461
2018-03-19,85.33700561523438
2018-03-20,85.1662368774414
2018-03-21,84.98600006103516
2018-03-22,83.43978118896484
2018-03-23,82.31092071533203
2018-03-26,83.67692565917969
2018-03-27,83.5536117553711
2018-03-28,83.81922149658203
2018-03-29,85.21368408203125
2018-04-02,83.41132354736328
2018-04-03,84.9575424194336
2018-04-04,85.099853515625
2018-04-05,85.75438690185547
2018-04-06,83.95204162597656
2018-04-09,85.28009796142578
2018-04-10,87.95516204833984
2018-04-11,87.50931549072266
2018-04-12,87.93618774414062
2018-04-13,87.98363494873047
2018-04-16,89.46345520019531
2018-04-17,91.1899185180664
2018-04-18,90.69664001464844
2018-04-19,89.92828369140625
2018-04-20,89.58677673339844
2018-04-23,89.50140380859375
2018-04-24,88.3915023803711
2018-04-25,88.36306762695312
2018-04-26,88.48638153076172
2018-04-27,88.65711975097656
2018-04-30,88.69507598876953
2018-05-01,88.73301696777344
2018-05-02,87.8033676147461
2018-05-03,86.43738555908203
2018-05-04,87.51880645751953
2018-05-07,88.03105163574219
2018-05-08,87.34568786621094
2018-05-09,88.48796081542969
2018-05-10,89.27803802490234
2018-05-11,89.75397491455078
2018-05-14,88.87824249267578
2018-05-15,87.66932678222656
2018-05-16,89.04007720947266
2018-05-17,88.80208587646484
2018-05-18,89.05908203125
2018-05-21,89.48743438720703
2018-05-22,89.43984985351562
2018-05-23,89.56359100341797
2018-05-24,89.50648498535156
2018-05-25,89.55406951904297
2018-05-29,88.82112884521484
2018-05-30,89.43984985351562
2018-05-31,87.87873840332031
2018-06-01,88.30708312988281
2018-06-04,89.34467315673828
2018-06-05,89.40177917480469
2018-06-06,89.39225769042969
2018-06-07,88.7544937133789
2018-06-08,89.15428161621094
2018-06-11,89.30658721923828
2018-06-12,89.62069702148438
2018-06-13,89.78253173828125
2018-06-14,90.29655456542969
2018-06-15,90.35366821289062
2018-06-18,90.27751159667969
2018-06-19,89.71590423583984
2018-06-20,90.08712768554688
2018-06-21,88.6212387084961
2018-06-22,88.17382049560547
2018-06-25,87.74546813964844
2018-06-26,88.24999237060547
2018-06-27,87.66932678222656
2018-06-28,88.24999237060547
2018-06-29,88.88775634765625
2018-07-02,89.08763885498047
2018-07-03,89.4684066772461
2018-07-05,89.991943359375
2018-07-06,89.55406951904297
2018-07-09,90.52500915527344
2018-07-10,91.48640441894531
2018-07-11,91.07709503173828
2018-07-12,91.13421630859375
2018-07-13,90.30607604980469
2018-07-16,88.80208587646484
2018-07-17,90.08712768554688
2018-07-18,90.06809997558594
2018-07-19,91.69583892822266
2018-07-20,91.17229461669922
2018-07-23,90.56307220458984
2018-07-24,90.19184875488281
2018-07-25,90.17279815673828
2018-07-26,91.44835662841797
2018-07-27,97.94977569580078
2018-07-30,97.56901550292969
2018-07-31,97.8268814086914
2018-08-01,97.8268814086914
2018-08-02,98.3521728515625
2018-08-03,99.42182922363281
2018-08-06,99.52689361572266
2018-08-07,98.89654541015625
2018-08-08,98.33305358886719
2018-08-09,99.2308120727539
2018-08-10,97.77912139892578
2018-08-13,96.8431625366211
2018-08-14,97.3970947265625
2018-08-15,96.78585815429688
2018-08-16,97.10102844238281
2018-08-17,98.14205169677734
2018-08-20,98.237548828125
2018-08-21,98.64823913574219
2018-08-22,98.54316711425781
2018-08-23,98.28530883789062
2018-08-24,99.13532257080078
2018-08-27,99.84207153320312
2018-08-28,99.22127532958984
2018-08-29,99.994873046875
2018-08-30,99.994873046875
2018-08-31,100.00444030761719
2018-09-04,101.599365234375
2018-09-05,103.31846618652344
2018-09-06,104.05388641357422
2018-09-07,103.05107116699219
2018-09-10,103.68138885498047
2018-09-11,103.6432113647461
2018-09-12,104.4740982055664
2018-09-13,105.83984375
2018-09-14,106.93815612792969
2018-09-17,106.29828643798828
2018-09-18,106.57522583007812
2018-09-19,106.13590240478516
2018-09-20,105.52466583251953
2018-09-21,105.3623046875
2018-09-24,105.41961669921875
2018-09-25,103.87242889404297
2018-09-26,103.71959686279297
2018-09-27,103.4712905883789
2018-09-28,102.89824676513672
2018-10-01,102.92689514160156
2018-10-02,103.2898178100586
2018-10-03,103.14656066894531
2018-10-04,102.27745819091797
2018-10-05,102.35385131835938
2018-10-08,102.8313980102539
2018-10-09,100.96904754638672
2018-10-10,97.81731414794922
2018-10-11,97.00553131103516
2018-10-12,97.0819320678711
2018-10-15,97.5594711303711
2018-10-16,100.85441589355469
2018-10-17,100.30046844482422
2018-10-18,99.58419036865234
2018-10-19,99.63194274902344
2018-10-22,99.29768371582031
2018-10-23,99.02071380615234
2018-10-24,95.58247375488281
2018-10-25,96.73811340332031
2018-10-26,95.84991455078125
2018-10-29,95.65889739990234
2018-10-30,97.144287109375
2018-10-31,97.7096939086914
2018-11-01,98.87882232666016
2018-11-02,99.47299194335938
2018-11-05,97.63301086425781
2018-11-06,99.7604751586914
2018-11-07,100.7283706665039
2018-11-08,100.74755096435547
2018-11-09,99.94255828857422
2018-11-12,97.52759552001953
2018-11-13,98.11216735839844
2018-11-14,97.82466888427734
2018-11-15,100.4217300415039
2018-11-16,101.84959411621094
2018-11-19,100.79544830322266
2018-11-20,99.96172332763672
2018-11-21,99.18547821044922
2018-11-23,99.56880950927734
2018-11-26,99.3675537109375
2018-11-27,98.03550720214844
2018-11-28,99.69340515136719
2018-11-29,99.52088928222656
2018-11-30,99.71256256103516
2018-12-03,100.10546875
2018-12-04,98.64883422851562
2018-12-06,97.3934326171875
2018-12-07,95.61097717285156
2018-12-10,94.97847747802734
2018-12-11,94.55683135986328
2018-12-12,95.7643051147461
2018-12-13,96.13804626464844
2018-12-14,96.15721130371094
2018-12-17,94.52809143066406
2018-12-18,93.85724639892578
2018-12-19,91.60521697998047
2018-12-20,91.04938507080078
2018-12-21,89.65026092529297
2018-12-24,85.96073913574219
2018-12-26,87.9444580078125
2018-12-27,88.51945495605469
2018-12-28,88.835693359375
2018-12-31,90.14859008789062
2019-01-02,86.42073059082031
2019-01-03,85.37617492675781
2019-01-04,87.27363586425781
2019-01-07,88.11695098876953
2019-01-08,89.62152099609375
2019-01-09,89.58317565917969
2019-01-10,90.63733673095703
2019-01-11,90.78106689453125
2019-01-14,90.04317474365234
2019-01-15,90.85771942138672
2019-01-16,90.76190948486328
2019-01-17,91.93106079101562
2019-01-18,93.61769104003906
2019-01-22,92.4197998046875
2019-01-23,93.32061004638672
2019-01-24,93.08102416992188
2019-01-25,93.33018493652344
2019-01-28,93.79974365234375
2019-01-29,94.18441772460938
2019-01-30,94.20365905761719
2019-01-31,95.31916809082031
2019-02-01,95.73269653320312
2019-02-04,96.02118682861328
2019-02-05,97.19441223144531
2019-02-06,97.69446563720703
2019-02-07,98.04065704345703
2019-02-08,97.50212860107422
2019-02-11,97.80024719238281
2019-02-12,98.39647674560547
2019-02-13,98.85807037353516
2019-02-14,97.8675537109375
2019-02-15,98.0310287475586
2019-02-19,97.65599822998047
2019-02-20,98.3387680053711
2019-02-21,99.16580963134766
2019-02-22,98.13682556152344
2019-02-25,97.66560363769531
2019-02-26,97.4251937866211
2019-02-27,97.52137756347656
2019-02-28,97.82910919189453
2019-03-01,96.94436645507812
2019-03-04,97.71369934082031
2019-03-05,97.57905578613281
2019-03-06,96.63664245605469
2019-03-07,96.05003356933594
2019-03-08,96.6174087524414
2019-03-11,98.10797119140625
2019-03-12,98.3387680053711
2019-03-13,98.3580093383789
2019-03-14,98.9446029663086
2019-03-15,99.09848022460938
2019-03-18,99.73316955566406
2019-03-19,99.62738800048828
2019-03-20,99.96397399902344
2019-03-21,101.49300384521484
2019-03-22,99.84855651855469
2019-03-25,100.50250244140625
2019-03-26,101.39684295654297
2019-03-27,101.4737548828125
2019-03-28,102.11808013916016
2019-03-29,102.31038665771484
2019-04-01,103.57978820800781
2019-04-02,103.10856628417969
2019-04-03,103.34899139404297
2019-04-04,103.95482635498047
2019-04-05,104.57028198242188
2019-04-08,104.81069946289062
2019-04-09,104.01252746582031
2019-04-10,104.8587875366211
2019-04-11,105.45500946044922
2019-04-12,106.08009338378906
2019-04-15,105.67618560791016
2019-04-16,105.41654968261719
2019-04-17,103.57015228271484
2019-04-18,104.06060791015625
2019-04-22,104.75299835205078
2019-04-23,105.83969116210938
2019-04-24,105.72427368164062
2019-04-25,105.2530746459961
2019-04-26,107.14749908447266
2019-04-29,107.05135345458984
2019-04-30,107.32150268554688
2019-05-01,108.836181640625
2019-05-02,109.0195083618164
2019-05-03,109.83954620361328
2019-05-06,110.96833801269531
2019-05-07,109.955322265625
2019-05-08,109.974609375
2019-05-09,109.0195083618164
2019-05-10,109.59835052490234
2019-05-13,108.82654571533203
2019-05-14,109.00019836425781
2019-05-15,109.25104522705078
2019-05-16,110.09040069580078
2019-05-17,109.77202606201172
2019-05-20,109.05809020996094
2019-05-21,109.48260498046875
2019-05-22,109.16421508789062
2019-05-23,108.98090362548828
2019-05-24,108.95196533203125
2019-05-28,108.92302703857422
2019-05-29,108.73006439208984
2019-05-30,109.51152801513672
2019-05-31,109.27999114990234
2019-06-03,110.01322174072266
2019-06-04,111.64368438720703
2019-06-05,113.0040054321289
2019-06-06,115.99481201171875
2019-06-07,117.62528991699219
2019-06-10,118.87948608398438
2019-06-11,118.26202392578125
2019-06-12,117.33585357666016
2019-06-13,116.46755981445312
2019-06-14,115.85974884033203
2019-06-17,115.93693542480469
2019-06-18,115.2808609008789
2019-06-19,115.20369720458984
2019-06-20,115.58960723876953
2019-06-21,115.17475891113281
2019-06-24,114.59590148925781
2019-06-25,116.79556274414062
2019-06-26,115.03968048095703
2019-06-27,117.26832580566406
2019-06-28,119.96005249023438
2019-07-01,119.89250946044922
2019-07-02,119.18822479248047
2019-07-03,121.48439025878906
2019-07-05,120.22052764892578
2019-07-08,119.62234497070312
2019-07-09,119.69955444335938
2019-07-10,119.22681427001953
2019-07-11,119.65131378173828
2019-07-12,119.06280517578125
2019-07-15,118.59004211425781
2019-07-16,118.82160186767578
2019-07-17,119.1785659790039
2019-07-18,119.97933197021484
2019-07-19,119.05314636230469
2019-07-22,118.82160186767578
2019-07-23,120.12406921386719
2019-07-24,118.94703674316406
2019-07-25,118.59004211425781
2019-07-26,120.10474395751953
2019-07-29,120.53889465332031
2019-07-30,119.79386901855469
2019-07-31,117.0943832397461
2019-08-01,113.74661254882812
2019-08-02,114.19170379638672
2019-08-05,113.28218078613281
2019-08-06,115.83656311035156
2019-08-07,117.71361541748047
2019-08-08,118.8843765258789
2019-08-09,117.1524429321289
2019-08-12,116.12682342529297
2019-08-13,117.28789520263672
2019-08-14,115.22698211669922
2019-08-15,114.49163055419922
2019-08-16,116.34935760498047
2019-08-19,116.32032775878906
2019-08-20,115.02378845214844
2019-08-21,115.4592056274414
2019-08-22,116.62995147705078
2019-08-23,116.35902404785156
2019-08-26,117.06535339355469
2019-08-27,117.55880737304688
2019-08-28,117.90713500976562
2019-08-29,117.7426528930664
2019-08-30,118.25545501708984
2019-09-03,115.76880645751953
2019-09-04,117.98454284667969
2019-09-05,117.26853942871094
2019-09-06,116.95891571044922
2019-09-09,115.23666381835938
2019-09-10,115.24633026123047
2019-09-11,114.78189849853516
2019-09-12,114.22071075439453
2019-09-13,114.55937194824219
2019-09-16,112.70165252685547
2019-09-17,113.21444702148438
2019-09-18,114.46261596679688
2019-09-19,114.02721405029297
2019-09-20,114.22071075439453
2019-09-23,114.26909637451172
2019-09-24,114.66580963134766
2019-09-25,115.25601196289062
2019-09-26,115.06249237060547
2019-09-27,114.82059478759766
2019-09-30,114.60774993896484
2019-10-01,113.8530502319336
2019-10-02,111.6082992553711
2019-10-03,111.25997924804688
2019-10-04,113.52406311035156
2019-10-07,112.77906036376953
2019-10-08,111.0567855834961
2019-10-09,112.70165252685547
2019-10-10,112.53716278076172
2019-10-11,112.5565185546875
2019-10-14,112.09208679199219
2019-10-15,111.44381713867188
2019-10-16,111.72441101074219
2019-10-17,112.7693862915039
2019-10-18,113.95948028564453
2019-10-21,114.0755844116211
2019-10-22,112.87581634521484
2019-10-23,113.56278228759766
2019-10-24,113.53375244140625
2019-10-25,114.05624389648438
2019-10-28,114.3658676147461
2019-10-29,115.01610565185547
2019-10-30,115.7342758178711
2019-10-31,114.66670989990234
2019-11-01,107.52369689941406
2019-11-04,105.46619415283203
2019-11-05,105.45650482177734
2019-11-06,106.26203155517578
2019-11-07,106.17467498779297
2019-11-08,105.78648376464844
2019-11-11,105.37884521484375
2019-11-12,105.02947235107422
2019-11-13,106.38819885253906
2019-11-14,107.21314239501953
2019-11-15,106.71817016601562
2019-11-18,107.08695983886719
2019-11-19,107.24225616455078
2019-11-20,107.43635559082031
2019-11-21,108.0186767578125
2019-11-22,106.87346649169922
2019-11-25,107.6789779663086
2019-11-26,109.24152374267578
2019-11-27,109.50355529785156
2019-11-29,108.81449127197266
2019-12-02,108.7077407836914
2019-12-03,109.38710021972656
2019-12-04,108.48451232910156
2019-12-05,108.64949798583984
2019-12-06,108.77566528320312
2019-12-09,109.30945587158203
2019-12-10,108.63978576660156
2019-12-11,109.251220703125
2019-12-12,110.81375122070312
2019-12-13,110.60994720458984
2019-12-16,110.94963073730469
2019-12-17,110.00822448730469
2019-12-18,109.74618530273438
2019-12-19,109.92088317871094
2019-12-20,111.57076263427734
2019-12-23,111.96868896484375
2019-12-24,111.34754943847656
2019-12-26,111.43489837646484
2019-12-27,111.6290054321289
2019-12-30,112.34718322753906
2019-12-31,112.21131134033203
2020-01-02,110.32850646972656
2020-01-03,110.67788696289062
2020-01-06,110.6875991821289
2020-01-07,109.58118438720703
2020-01-08,109.88206481933594
2020-01-09,111.27961730957031
2020-01-10,112.37630462646484
2020-01-13,112.77421569824219
2020-01-14,112.70626831054688
2020-01-15,113.2691650390625
2020-01-16,114.73466491699219
2020-01-17,113.8611831665039
2020-01-21,112.22101593017578
2020-01-22,112.25982666015625
2020-01-23,113.90971374511719
2020-01-24,113.66707611083984
2020-01-27,113.05564880371094
2020-01-28,112.89989471435547
2020-01-29,112.87068939208984
2020-01-30,113.45480346679688
2020-01-31,112.45207214355469
2020-02-03,114.13626861572266
2020-02-04,113.85394287109375
2020-02-05,114.74958801269531
2020-02-06,114.41859436035156
2020-02-07,113.6105728149414
2020-02-10,112.73439025878906
2020-02-11,112.977783203125
2020-02-12,111.67325592041016
2020-02-13,113.12379455566406
2020-02-14,113.58135223388672
2020-02-18,112.20867919921875
2020-02-19,111.9653091430664
2020-02-20,111.88742065429688
2020-02-21,109.01551818847656
2020-02-24,106.31884002685547
2020-02-25,104.10894012451172
2020-02-26,101.90877532958984
2020-02-27,99.68913269042969
2020-02-28,98.39434051513672
2020-03-02,100.83789825439453
2020-03-03,100.03961181640625
2020-03-04,104.595703125
2020-03-05,101.22731018066406
2020-03-06,104.45941925048828
2020-03-09,98.7642822265625
2020-03-10,101.23705291748047
2020-03-11,96.45703125
2020-03-12,91.90092468261719
2020-03-13,93.83824157714844
2020-03-16,85.55353546142578
2020-03-17,93.89664459228516
2020-03-18,94.18870544433594
2020-03-19,96.26231384277344
2020-03-20,90.06095123291016
2020-03-23,81.70809936523438
2020-03-24,85.728759765625
2020-03-25,87.79264068603516
2020-03-26,93.65326690673828
2020-03-27,91.51151275634766
2020-03-30,97.81996154785156
2020-03-31,96.90484619140625
2020-04-01,93.66299438476562
2020-04-02,93.6045913696289
2020-04-03,91.69648742675781
2020-04-06,98.0925521850586
2020-04-07,98.4430160522461
2020-04-08,101.3538589477539
2020-04-09,104.43019104003906
2020-04-13,99.64044952392578
2020-04-14,101.26624298095703
2020-04-15,98.25804901123047
2020-04-16,99.1536865234375
2020-04-17,100.21484375
2020-04-20,104.10894012451172
2020-04-21,103.31065368652344
2020-04-22,103.48589324951172
2020-04-23,102.23976135253906
2020-04-24,101.36359405517578
2020-04-27,109.5996322631836
2020-04-28,108.58391571044922
2020-04-29,107.50960540771484
2020-04-30,104.57966613769531
2020-05-01,103.66161346435547
2020-05-04,104.31596374511719
2020-05-05,103.09514617919922
2020-05-06,102.41148376464844
2020-05-07,103.00724029541016
2020-05-08,105.01914978027344
2020-05-11,103.82762908935547
2020-05-12,101.52274322509766
2020-05-13,100.0284652709961
2020-05-14,100.0675277709961
2020-05-15,99.12994384765625
2020-05-18,101.71807098388672
2020-05-19,101.3078842163086
2020-05-20,101.97200775146484
2020-05-21,102.6361312866211
2020-05-22,102.6458969116211
2020-05-26,106.99198150634766
2020-05-27,109.92192840576172
2020-05-28,108.99410247802734
2020-05-29,108.78902435302734
2020-06-01,108.81831359863281
2020-06-02,109.45314025878906
2020-06-03,110.63488006591797
2020-06-04,109.52149200439453
2020-06-05,110.7520751953125
2020-06-08,110.92788696289062
2020-06-09,109.84380340576172
2020-06-10,109.03317260742188
2020-06-11,101.81574249267578
2020-06-12,102.89982604980469
2020-06-15,102.94866180419922
2020-06-16,104.88241577148438
2020-06-17,104.41362762451172
2020-06-18,104.49175262451172
2020-06-19,105.0875015258789
2020-06-22,105.03868865966797
2020-06-23,104.9312515258789
2020-06-24,103.46626281738281
2020-06-25,105.0875015258789
2020-06-26,105.2047119140625
2020-06-29,106.69898223876953
2020-06-30,109.36524963378906
2020-07-01,109.85357666015625
2020-07-02,112.28541564941406
2020-07-06,112.56864929199219
2020-07-07,112.46121215820312
2020-07-08,110.29306030273438
2020-07-09,111.10368347167969
2020-07-10,112.2658920288086
2020-07-13,110.7813720703125
2020-07-14,113.59412384033203
2020-07-15,115.14700317382812
2020-07-16,114.5024185180664
2020-07-17,116.61198425292969
2020-07-20,116.50454711914062
2020-07-21,115.42047882080078
2020-07-22,115.73300170898438
2020-07-23,115.67439270019531
2020-07-24,116.0748291015625
2020-07-27,117.05147552490234
2020-07-28,115.64085388183594
2020-07-29,116.38534545898438
2020-07-30,115.50373077392578
2020-07-31,112.84901428222656
2020-08-03,116.23841857910156
2020-08-04,116.19923400878906
2020-08-05,115.94453430175781
2020-08-06,115.25881958007812
2020-08-07,116.81637573242188
2020-08-10,114.6122817993164
2020-08-11,114.35759735107422
2020-08-12,115.68003845214844
2020-08-13,116.10127258300781
2020-08-14,116.07189178466797
2020-08-17,115.83678436279297
2020-08-18,115.4743423461914
2020-08-19,115.28822326660156
2020-08-20,115.15106964111328
2020-08-21,115.39596557617188
2020-08-24,116.67923736572266
2020-08-25,115.7192153930664
2020-08-26,116.17963409423828
2020-08-27,117.60005187988281
2020-08-28,115.7192153930664
2020-08-31,115.97393798828125
2020-09-01,117.06126403808594
2020-09-02,119.76495361328125
2020-09-03,116.73800659179688
2020-09-04,116.29718780517578
2020-09-08,113.69147491455078
2020-09-09,115.484130859375
2020-09-10,114.79841613769531
2020-09-11,115.94453430175781
2020-09-14,116.64984893798828
2020-09-15,115.91515350341797
2020-09-16,115.3665771484375
2020-09-17,113.59351348876953
2020-09-18,112.6922836303711
2020-09-21,111.1347427368164
2020-09-22,111.99677276611328
2020-09-23,109.85147094726562
2020-09-24,109.96903228759766
2020-09-25,109.8122787475586
2020-09-28,110.06697845458984
2020-09-29,110.32169342041016
2020-09-30,110.88983917236328
2020-10-01,111.37963104248047
2020-10-02,110.54698181152344
2020-10-05,112.21229553222656
2020-10-06,112.22207641601562
2020-10-07,112.6335220336914
2020-10-08,114.14208221435547
2020-10-09,114.42616271972656
2020-10-12,115.63106536865234
2020-10-13,115.16085815429688
2020-10-14,114.063720703125
2020-10-15,113.96575164794922
2020-10-16,113.97555541992188
2020-10-19,112.80004119873047
2020-10-20,114.57310485839844
2020-10-21,115.33718872070312
2020-10-22,115.89556121826172
2020-10-23,115.93474578857422
2020-10-26,115.06289672851562
2020-10-27,113.63813781738281
2020-10-28,110.38570404052734
2020-10-29,110.97528076171875
2020-10-30,112.10527038574219
2020-11-02,116.13394927978516
2020-11-03,117.4801025390625
2020-11-04,116.9789810180664
2020-11-05,120.77183532714844
2020-11-06,121.4498291015625
2020-11-09,121.02731323242188
2020-11-10,125.39007568359375
2020-11-11,123.09077453613281
2020-11-12,122.1081771850586
2020-11-13,122.89424896240234
2020-11-16,124.65311431884766
2020-11-17,125.14441680908203
2020-11-18,124.17163848876953
2020-11-19,125.01668548583984
2020-11-20,125.58658599853516
2020-11-23,124.65311431884766
2020-11-24,125.65536499023438
2020-11-25,124.09303283691406
2020-11-27,125.02650451660156
2020-11-30,124.12252044677734
2020-12-01,125.5964126586914
2020-12-02,124.06355285644531
2020-12-03,123.68034362792969
2020-12-04,125.45885467529297
2020-12-07,126.39234161376953
2020-12-08,126.94258880615234
2020-12-09,127.27668762207031
2020-12-10,128.2003173828125
2020-12-11,128.1806640625
2020-12-14,126.17615509033203
2020-12-15,127.99397277832031
2020-12-16,128.81936645507812
2020-12-17,130.82386779785156
2020-12-18,131.76718139648438
2020-12-21,132.54344177246094
2020-12-22,132.16021728515625
2020-12-23,132.18968200683594
2020-12-24,133.33934020996094
2020-12-28,133.31967163085938
2020-12-29,132.9561309814453
2020-12-30,134.01731872558594
2020-12-31,134.50865173339844
2021-01-04,131.6688995361328
2021-01-05,131.37411499023438
2021-01-06,135.32421875
2021-01-07,137.26976013183594
2021-01-08,136.65072631835938
2021-01-11,136.3755645751953
2021-01-12,135.7467041015625
2021-01-13,136.1692352294922
2021-01-14,137.02410888671875
2021-01-15,136.41488647460938
2021-01-19,134.8721923828125
2021-01-20,138.17373657226562
2021-01-21,135.7073974609375
2021-01-22,135.78602600097656
2021-01-25,137.1420135498047
2021-01-26,136.787353515625
2021-01-27,131.2705535888672
2021-01-28,133.2408447265625
2021-01-29,130.99468994140625
2021-02-01,132.0980682373047
2021-02-02,134.90573120117188
2021-02-03,134.53138732910156
2021-02-04,135.949951171875
2021-02-05,138.57046508789062
2021-02-08,139.870849609375
2021-02-09,140.05804443359375
2021-02-10,141.1219940185547
2021-02-11,140.84613037109375
2021-02-12,142.4814910888672
2021-02-16,141.466796875
2021-02-17,141.0825958251953
2021-02-18,138.8955841064453
2021-02-19,130.27554321289062
2021-02-22,127.18220520019531
2021-02-23,126.3743667602539
2021-02-24,126.84723663330078
2021-02-25,128.36436462402344
2021-02-26,128.13778686523438
2021-03-01,128.659912109375
2021-03-02,128.41363525390625
2021-03-03,129.1032257080078
2021-03-04,128.46287536621094
2021-03-05,132.0980682373047
2021-03-08,135.66429138183594
2021-03-09,135.6446075439453
2021-03-10,137.3094940185547
2021-03-11,137.3094940185547
2021-03-12,138.67884826660156
2021-03-15,140.0186309814453
2021-03-16,138.412841796875
2021-03-17,139.18125915527344
2021-03-18,139.40782165527344
2021-03-19,137.24050903320312
2021-03-22,139.4866485595703
2021-03-23,138.67884826660156
2021-03-24,139.73294067382812
2021-03-25,140.35357666015625
2021-03-26,142.66868591308594
2021-03-29,142.61940002441406
2021-03-30,140.9545135498047
2021-03-31,139.56546020507812
2021-04-01,141.73277282714844
2021-04-05,142.54058837890625
2021-04-06,143.80157470703125
2021-04-07,141.45692443847656
2021-04-08,141.54559326171875
2021-04-09,143.0430145263672
2021-04-12,144.03802490234375
2021-04-13,144.15625
2021-04-14,143.64398193359375
2021-04-15,145.0133056640625
2021-04-16,145.88023376464844
2021-04-19,147.4860382080078
2021-04-20,148.1854705810547
2021-04-21,149.6829071044922
2021-04-22,147.8406982421875
2021-04-23,149.20018005371094
2021-04-26,148.67803955078125
2021-04-27,149.76443481445312
2021-04-28,149.25088500976562
2021-04-29,149.0533447265625
2021-04-30,148.9447021484375
2021-05-03,150.5742950439453
2021-05-04,153.1026611328125
2021-05-05,152.27301025390625
2021-05-06,154.58409118652344
2021-05-07,155.61122131347656
2021-05-10,153.55694580078125
2021-05-11,152.08538818359375
2021-05-12,149.7348175048828
2021-05-13,152.70758056640625
2021-05-14,151.6409454345703
2021-05-17,151.21627807617188
2021-05-18,149.0533447265625
2021-05-19,147.69039916992188
2021-05-20,147.88795471191406
2021-05-21,147.77931213378906
2021-05-24,147.41387939453125
2021-05-25,145.90280151367188
2021-05-26,146.0312042236328
2021-05-27,144.95469665527344
2021-05-28,145.4879913330078
2021-06-01,145.0633087158203
2021-06-02,143.85841369628906
2021-06-03,143.60162353515625
2021-06-04,143.7596435546875
2021-06-07,140.75726318359375
2021-06-08,141.01402282714844
2021-06-09,140.41156005859375
2021-06-10,143.19668579101562
2021-06-11,144.0263214111328
2021-06-14,141.7152557373047
2021-06-15,142.5448760986328
2021-06-16,140.85598754882812
2021-06-17,139.75973510742188
2021-06-18,138.3671875
2021-06-21,139.82888793945312
2021-06-22,139.8782501220703
2021-06-23,138.43630981445312
2021-06-24,138.44619750976562
2021-06-25,139.1770477294922
2021-06-28,138.96963500976562
2021-06-29,138.54495239257812
2021-06-30,139.0980224609375
2021-07-01,139.3745574951172
2021-07-02,138.67335510253906
2021-07-06,138.3177947998047
2021-07-07,139.2758026123047
2021-07-08,137.5474395751953
2021-07-09,139.43380737304688
2021-07-12,138.6832275390625
2021-07-13,136.78697204589844
2021-07-14,136.7277069091797
2021-07-15,136.84622192382812
2021-07-16,137.32028198242188
2021-07-19,135.4339141845703
2021-07-20,135.3252716064453
2021-07-21,134.3771514892578
2021-07-22,133.00433349609375
2021-07-23,134.55491638183594
2021-07-26,135.02899169921875
2021-07-27,135.0684814453125
2021-07-28,135.94747924804688
2021-07-29,137.33016967773438
2021-07-30,127.32544708251953
2021-08-02,128.30322265625
2021-08-03,127.4117431640625
2021-08-04,125.56934356689453
2021-08-05,126.29244232177734
2021-08-06,127.21361541748047
2021-08-09,128.84800720214844
2021-08-10,127.97633361816406
2021-08-11,130.38333129882812
2021-08-12,131.42337036132812
2021-08-13,131.7898712158203
2021-08-16,131.62149047851562
2021-08-17,131.750244140625
2021-08-18,130.79934692382812
2021-08-19,131.15594482421875
2021-08-20,132.2554168701172
2021-08-23,131.7007293701172
2021-08-24,131.7007293701172
2021-08-25,132.85964965820312
2021-08-26,131.40357971191406
2021-08-27,133.255859375
2021-08-30,133.94923400878906
2021-08-31,133.52330017089844
2021-09-01,133.7313232421875
2021-09-02,133.86007690429688
2021-09-03,133.86997985839844
2021-09-07,129.8385467529297
2021-09-08,129.64044189453125
2021-09-09,127.4117431640625
2021-09-10,124.64816284179688
2021-09-13,123.5783920288086
2021-09-14,123.40009307861328
2021-09-15,123.44962310791016
2021-09-16,121.14169311523438
2021-09-17,120.08181762695312
2021-09-20,120.70585632324219
2021-09-21,118.92289733886719
2021-09-22,119.14082336425781
2021-09-23,119.86390686035156
2021-09-24,119.22006225585938
2021-09-27,119.19034576416016
2021-09-28,118.8931884765625
2021-09-29,119.23987579345703
2021-09-30,118.2196273803711
2021-10-01,120.42851257324219
2021-10-04,121.13179016113281
2021-10-05,120.50775146484375
2021-10-06,121.9341049194336
2021-10-07,123.0831298828125
2021-10-08,123.33075714111328
2021-10-11,123.39019012451172
2021-10-12,123.31094360351562
2021-10-13,126.18347930908203
2021-10-14,126.79759979248047
2021-10-15,127.00562286376953
2021-10-18,126.60940551757812
2021-10-19,126.34196472167969
2021-10-20,126.9461898803711
2021-10-21,127.84757232666016
2021-10-22,126.55988311767578
2021-10-25,126.57969665527344
2021-10-26,126.06307983398438
2021-10-27,124.50331115722656
2021-10-28,125.15901184082031
2021-10-29,119.9928970336914
2021-11-01,124.36422729492188
2021-11-02,126.56975555419922
2021-11-03,127.563232421875
2021-11-04,127.71226501464844
2021-11-05,130.64303588867188
2021-11-08,129.78863525390625
2021-11-09,129.51046752929688
2021-11-10,128.7355499267578
2021-11-11,128.9839324951172
2021-11-12,130.63311767578125
2021-11-15,131.45770263671875
2021-11-16,133.3651885986328
2021-11-17,133.5738067626953
2021-11-18,128.795166015625
2021-11-19,129.3018341064453
2021-11-22,127.96063995361328
2021-11-23,128.85476684570312
2021-11-24,127.34466552734375
2021-11-26,125.78490447998047
2021-11-29,125.04972839355469
2021-11-30,118.81065368652344
2021-12-01,116.02890014648438
2021-12-02,118.8702621459961
2021-12-03,118.02580261230469
2021-12-06,119.4365463256836
2021-12-07,119.49615478515625
2021-12-08,120.03263854980469
2021-12-09,118.75104522705078
2021-12-10,118.95967102050781
2021-12-13,117.8370361328125
2021-12-14,116.18785858154297
2021-12-15,117.5986099243164
2021-12-16,117.91651916503906
2021-12-17,115.134765625
2021-12-20,112.92922973632812
2021-12-21,114.63802337646484
2021-12-22,114.63802337646484
2021-12-23,115.5718994140625
2021-12-27,119.10869598388672
2021-12-28,120.64859771728516
2021-12-29,121.30429077148438
2021-12-30,121.08573150634766
2021-12-31,121.68181610107422
