Date,Adj Close
2017-01-03,67.94324493408203
2017-01-04,69.06913757324219
2017-01-05,68.3619613647461
2017-01-06,68.38988494873047
2017-01-09,68.55738830566406
2017-01-10,67.75715637207031
2017-01-11,67.96184539794922
2017-01-12,68.23170471191406
2017-01-13,68.38988494873047
2017-01-17,68.24101257324219
2017-01-18,68.37126922607422
2017-01-19,67.67341613769531
2017-01-20,66.65918731689453
2017-01-23,67.41287231445312
2017-01-24,68.42710876464844
2017-01-25,68.32474517822266
2017-01-26,68.22239685058594
2017-01-27,68.33404541015625
2017-01-30,67.97892761230469
2017-01-31,68.19388580322266
2017-02-01,69.10037231445312
2017-02-02,68.53031921386719
2017-02-03,68.95085144042969
2017-02-06,68.54898834228516
2017-02-07,67.9695816040039
2017-02-08,68.73591613769531
2017-02-09,68.75457763671875
2017-02-10,69.8947525024414
2017-02-13,69.55830383300781
2017-02-14,68.99759674072266
2017-02-15,68.4088134765625
2017-02-16,69.34337615966797
2017-02-17,69.06300354003906
2017-02-21,69.70785522460938
2017-02-22,69.39944458007812
2017-02-23,69.26860809326172
2017-02-24,69.4928970336914
2017-02-27,69.60502624511719
2017-02-28,69.63306427001953
2017-03-01,71.08161163330078
2017-03-02,70.84797668457031
2017-03-03,71.06293487548828
2017-03-06,70.69845581054688
2017-03-07,70.53022766113281
2017-03-08,70.96949005126953
2017-03-09,70.88536071777344
2017-03-10,71.7638168334961
2017-03-13,71.72645568847656
2017-03-14,71.52085876464844
2017-03-15,72.18436431884766
2017-03-16,71.94141387939453
2017-03-17,72.03485870361328
2017-03-20,72.74510192871094
2017-03-21,71.74515533447266
2017-03-22,71.81990814208984
2017-03-23,72.10962677001953
2017-03-24,71.60496520996094
2017-03-27,71.60496520996094
2017-03-28,72.02552032470703
2017-03-29,71.99748229980469
2017-03-30,71.82925415039062
2017-03-31,71.95075225830078
2017-04-03,71.44608306884766
2017-04-04,71.71708679199219
2017-04-05,71.10030364990234
2017-04-06,71.52085876464844
2017-04-07,71.17507934570312
2017-04-10,71.85728454589844
2017-04-11,71.88533782958984
2017-04-12,71.2405014038086
2017-04-13,70.83865356445312
2017-04-17,72.21241760253906
2017-04-18,72.49278259277344
2017-04-19,72.47409057617188
2017-04-20,72.72642517089844
2017-04-21,72.88529205322266
2017-04-24,73.17501068115234
2017-04-25,73.57684326171875
2017-04-26,74.14692687988281
2017-04-27,73.63292694091797
2017-04-28,75.04410552978516
2017-05-01,74.80952453613281
2017-05-02,75.25052642822266
2017-05-03,75.48507690429688
2017-05-04,76.36707305908203
2017-05-05,76.85499572753906
2017-05-08,77.41797637939453
2017-05-09,77.38980865478516
2017-05-10,77.75575256347656
2017-05-11,77.43671417236328
2017-05-12,77.34291076660156
2017-05-15,77.53055572509766
2017-05-16,77.68069458007812
2017-05-17,77.20214080810547
2017-05-18,77.07078552246094
2017-05-19,77.27721405029297
2017-05-22,77.72759246826172
2017-05-23,78.05598449707031
2017-05-24,78.24365234375
2017-05-25,78.95675659179688
2017-05-26,79.16316986083984
2017-05-30,79.32268524169922
2017-05-31,79.76368713378906
2017-06-01,80.9365463256836
2017-06-02,81.002197265625
2017-06-05,80.55183410644531
2017-06-06,80.20467376708984
2017-06-07,80.40170288085938
2017-06-08,79.98887634277344
2017-06-09,80.36416625976562
2017-06-12,80.16714477539062
2017-06-13,80.86146545410156
2017-06-14,80.92715454101562
2017-06-15,80.90838623046875
2017-06-16,80.64563751220703
2017-06-19,81.39630889892578
2017-06-20,81.52764129638672
2017-06-21,81.630859375
2017-06-22,81.46195220947266
2017-06-23,81.4432144165039
2017-06-26,81.7622299194336
2017-06-27,81.03974151611328
2017-06-28,81.5651626586914
2017-06-29,81.15233612060547
2017-06-30,81.4994888305664
2017-07-03,81.70590209960938
2017-07-05,81.9029769897461
2017-07-06,81.92172241210938
2017-07-07,82.65360260009766
2017-07-10,82.85063934326172
2017-07-11,82.72866821289062
2017-07-12,83.48866271972656
2017-07-13,83.16026306152344
2017-07-14,83.9109115600586
2017-07-17,84.24870300292969
2017-07-18,84.20177459716797
2017-07-19,84.53016662597656
2017-07-20,84.16421508789062
2017-07-21,83.98595428466797
2017-07-24,84.2402114868164
2017-07-25,83.51512908935547
2017-07-26,82.921875
2017-07-27,82.86538696289062
2017-07-28,77.50739288330078
2017-07-31,76.20792388916016
2017-08-01,77.69573211669922
2017-08-02,77.45088195800781
2017-08-03,77.45088195800781
2017-08-04,77.55447387695312
2017-08-07,77.91230010986328
2017-08-08,77.91230010986328
2017-08-09,77.66748046875
2017-08-10,76.75408172607422
2017-08-11,77.3473129272461
2017-08-14,78.07237243652344
2017-08-15,77.92172241210938
2017-08-16,78.67504119873047
2017-08-17,77.33788299560547
2017-08-18,77.35671997070312
2017-08-21,76.73524475097656
2017-08-22,77.32847595214844
2017-08-23,76.84822845458984
2017-08-24,76.34915924072266
2017-08-25,77.58272552490234
2017-08-28,77.08364868164062
2017-08-29,77.21546936035156
2017-08-30,78.12889099121094
2017-08-31,78.73155975341797
2017-09-01,78.98580169677734
2017-09-05,78.39254760742188
2017-09-06,78.01588439941406
2017-09-07,78.73155975341797
2017-09-08,78.92928314208984
2017-09-11,80.1534423828125
2017-09-12,80.22876739501953
2017-09-13,79.56961059570312
2017-09-14,79.91802978515625
2017-09-15,79.76734924316406
2017-09-18,80.45475769042969
2017-09-19,80.56775665283203
2017-09-20,81.09508514404297
2017-09-21,81.12333679199219
2017-09-22,80.71842956542969
2017-09-25,81.69774627685547
2017-09-26,81.6883316040039
2017-09-27,81.49057006835938
2017-09-28,81.99906158447266
2017-09-29,81.27400207519531
2017-10-02,82.75238800048828
2017-10-03,83.27030181884766
2017-10-04,82.9972152709961
2017-10-05,82.9972152709961
2017-10-06,83.41155242919922
2017-10-09,83.29855346679688
2017-10-10,83.30796813964844
2017-10-11,83.20438385009766
2017-10-12,83.32678985595703
2017-10-13,83.65637969970703
2017-10-16,83.75055694580078
2017-10-17,83.78822326660156
2017-10-18,83.43038177490234
2017-10-19,83.4680404663086
2017-10-20,83.99536895751953
2017-10-23,83.83528900146484
2017-10-24,83.92005920410156
2017-10-25,83.32678985595703
2017-10-26,83.75055694580078
2017-10-27,82.79946899414062
2017-10-30,81.41524505615234
2017-10-31,82.29424285888672
2017-11-01,82.6156005859375
2017-11-02,81.85002136230469
2017-11-03,82.17138671875
2017-11-06,81.14115142822266
2017-11-07,81.01830291748047
2017-11-08,81.02774047851562
2017-11-09,80.11095428466797
2017-11-10,80.25271606445312
2017-11-13,80.89541625976562
2017-11-14,80.91431427001953
2017-11-15,80.79144287109375
2017-11-16,81.38688659667969
2017-11-17,80.95214080810547
2017-11-20,80.78199768066406
2017-11-21,81.79330444335938
2017-11-22,81.14115142822266
2017-11-24,81.51922607421875
2017-11-27,81.98233795166016
2017-11-28,82.14302825927734
2017-11-29,82.75736999511719
2017-11-30,83.56074523925781
2017-12-01,82.79515838623047
2017-12-04,83.22993469238281
2017-12-05,84.11837768554688
2017-12-06,83.33391571044922
2017-12-07,83.5323715209961
2017-12-08,83.07872009277344
2017-12-11,82.49273681640625
2017-12-12,81.68933868408203
2017-12-13,81.93508911132812
2017-12-14,81.63262939453125
2017-12-15,82.20916748046875
2017-12-18,81.82167053222656
2017-12-19,81.83112335205078
2017-12-20,81.5948257446289
2017-12-21,81.05607604980469
2017-12-22,81.18840789794922
2017-12-26,80.7063980102539
2017-12-27,80.92378234863281
2017-12-28,81.99179077148438
2017-12-29,81.54754638671875
2018-01-02,82.2375259399414
2018-01-03,82.40764617919922
2018-01-04,81.29237365722656
2018-01-05,82.14302825927734
2018-01-08,82.41710662841797
2018-01-09,81.65153503417969
2018-01-10,80.9710464477539
2018-01-11,81.51922607421875
2018-01-12,81.81221771240234
2018-01-16,81.509765625
2018-01-17,82.07685089111328
2018-01-18,82.45491790771484
2018-01-19,83.74977111816406
2018-01-22,82.662841796875
2018-01-23,82.79515838623047
2018-01-24,83.36225891113281
2018-01-25,84.5248031616211
2018-01-26,84.2507095336914
2018-01-29,82.91806030273438
2018-01-30,83.18367767333984
2018-01-31,82.92752838134766
2018-02-01,82.37733459472656
2018-02-02,81.39078521728516
2018-02-05,79.09513854980469
2018-02-06,79.48407745361328
2018-02-07,79.54098510742188
2018-02-08,77.19792938232422
2018-02-09,77.93783569335938
2018-02-12,78.35523986816406
2018-02-13,85.10931396484375
2018-02-14,86.00103759765625
2018-02-15,86.48482513427734
2018-02-16,87.11092376708984
2018-02-20,86.3804702758789
2018-02-21,85.52671813964844
2018-02-22,85.95359802246094
2018-02-23,86.3140640258789
2018-02-26,86.1148681640625
2018-02-27,84.90064239501953
2018-02-28,84.82476806640625
2018-03-01,84.42633056640625
2018-03-02,85.07138061523438
2018-03-05,85.75438690185547
2018-03-06,86.10538482666016
2018-03-07,85.50774383544922
2018-03-08,85.32750701904297
2018-03-09,86.20022583007812
2018-03-12,86.1148681640625
2018-03-13,85.8492431640625
2018-03-14,85.44134521484375
2018-03-15,85.64055633544922
2018-03-16,85.51722717285156
2018-03-19,85.33699035644531
2018-03-20,85.16625213623047
2018-03-21,84.98599243164062
2018-03-22,83.43978118896484
2018-03-23,82.3109130859375
2018-03-26,83.67694854736328
2018-03-27,83.55362701416016
2018-03-28,83.81922912597656
2018-03-29,85.21367645263672
2018-04-02,83.41133880615234
2018-04-03,84.95755004882812
2018-04-04,85.09984588623047
2018-04-05,85.75438690185547
2018-04-06,83.95201873779297
2018-04-09,85.28008270263672
2018-04-10,87.95515441894531
2018-04-11,87.50931549072266
2018-04-12,87.93620300292969
2018-04-13,87.983642578125
2018-04-16,89.46347045898438
2018-04-17,91.18993377685548
2018-04-18,90.6966552734375
2018-04-19,89.92827606201172
2018-04-20,89.5867691040039
2018-04-23,89.50140380859375
2018-04-24,88.39153289794922
2018-04-25,88.36306762695312
2018-04-26,88.48638153076172
2018-04-27,88.65713500976562
2018-04-30,88.6950912475586
2018-05-01,88.73303985595703
2018-05-02,87.80338287353516
2018-05-03,86.43739318847656
2018-05-04,87.51881408691406
2018-05-07,88.03105926513672
2018-05-08,87.34569549560547
2018-05-09,88.48796081542969
2018-05-10,89.27803039550781
2018-05-11,89.75397491455078
2018-05-14,88.87825775146484
2018-05-15,87.66931915283203
2018-05-16,89.04006958007812
2018-05-17,88.80209350585938
2018-05-18,89.05908966064453
2018-05-21,89.4874496459961
2018-05-22,89.4398422241211
2018-05-23,89.5635986328125
2018-05-24,89.50648498535156
2018-05-25,89.55408477783203
2018-05-29,88.82112884521484
2018-05-30,89.4398422241211
2018-05-31,87.87873077392578
2018-06-01,88.30709838867188
2018-06-04,89.34465026855469
2018-06-05,89.40176391601562
2018-06-06,89.39226531982422
2018-06-07,88.75448608398438
2018-06-08,89.15428161621094
2018-06-11,89.30658721923828
2018-06-12,89.62071990966797
2018-06-13,89.78252410888672
2018-06-14,90.29656219482422
2018-06-15,90.35364532470705
2018-06-18,90.27751922607422
2018-06-19,89.71590423583984
2018-06-20,90.08714294433594
2018-06-21,88.6212158203125
2018-06-22,88.17381286621094
2018-06-25,87.74549102783203
2018-06-26,88.24999237060547
2018-06-27,87.66931915283203
2018-06-28,88.24999237060547
2018-06-29,88.88776397705078
2018-07-02,89.087646484375
2018-07-03,89.4684066772461
2018-07-05,89.99195098876953
2018-07-06,89.55408477783203
2018-07-09,90.52500915527344
2018-07-10,91.48641967773438
2018-07-11,91.07709503173828
2018-07-12,91.13422393798828
2018-07-13,90.30607604980467
2018-07-16,88.80209350585938
2018-07-17,90.08714294433594
2018-07-18,90.068115234375
2018-07-19,91.69583892822266
2018-07-20,91.17230224609376
2018-07-23,90.5630874633789
2018-07-24,90.1918487548828
2018-07-25,90.1728057861328
2018-07-26,91.44835662841795
2018-07-27,97.94976806640624
2018-07-30,97.56900787353516
2018-07-31,97.8268814086914
2018-08-01,97.8268814086914
2018-08-02,98.35216522216795
2018-08-03,99.42183685302734
2018-08-06,99.5269012451172
2018-08-07,98.89655303955078
2018-08-08,98.33307647705078
2018-08-09,99.23081970214844
2018-08-10,97.77912139892578
2018-08-13,96.8431625366211
2018-08-14,97.39710235595705
2018-08-15,96.78585815429688
2018-08-16,97.1010284423828
2018-08-17,98.1420669555664
2018-08-20,98.23756408691406
2018-08-21,98.64822387695312
2018-08-22,98.54318237304688
2018-08-23,98.28532409667967
2018-08-24,99.13532257080078
2018-08-27,99.84205627441406
2018-08-28,99.22128295898438
2018-08-29,99.99486541748048
2018-08-30,99.99486541748048
2018-08-31,100.0044174194336
2018-09-04,101.59935760498048
2018-09-05,103.31846618652344
2018-09-06,104.05387878417967
2018-09-07,103.05106353759766
2018-09-10,103.681396484375
2018-09-11,103.64319610595705
2018-09-12,104.47410583496094
2018-09-13,105.83983612060548
2018-09-14,106.93815612792967
2018-09-17,106.29827117919922
2018-09-18,106.5752410888672
2018-09-19,106.13591003417967
2018-09-20,105.524658203125
2018-09-21,105.3623275756836
2018-09-24,105.41961669921876
2018-09-25,103.8724136352539
2018-09-26,103.7196044921875
2018-09-27,103.47127532958984
2018-09-28,102.89825439453124
2018-10-01,102.92691040039062
2018-10-02,103.28983306884766
2018-10-03,103.14656829833984
2018-10-04,102.27745819091795
2018-10-05,102.35386657714844
2018-10-08,102.83139038085938
2018-10-09,100.96903228759766
2018-10-10,97.81732940673828
2018-10-11,97.00553131103516
2018-10-12,97.0819320678711
2018-10-15,97.55946350097656
2018-10-16,100.85443115234376
2018-10-17,100.30049896240234
2018-10-18,99.58419036865234
2018-10-19,99.63195037841795
2018-10-22,99.29767608642578
2018-10-23,99.02071380615234
2018-10-24,95.58248901367188
2018-10-25,96.73810577392578
2018-10-26,95.84990692138672
2018-10-29,95.65889739990234
2018-10-30,97.14427947998048
2018-10-31,97.7096710205078
2018-11-01,98.87882995605467
2018-11-02,99.47298431396484
2018-11-05,97.63300323486328
2018-11-06,99.7604751586914
2018-11-07,100.7283706665039
2018-11-08,100.7475357055664
2018-11-09,99.94255828857422
2018-11-12,97.527587890625
2018-11-13,98.11216735839844
2018-11-14,97.8246841430664
2018-11-15,100.42171478271484
2018-11-16,101.84959411621094
2018-11-19,100.7954559326172
2018-11-20,99.96172332763672
2018-11-21,99.18548583984376
2018-11-23,99.56881713867188
2018-11-26,99.36756134033205
2018-11-27,98.03551483154295
2018-11-28,99.6933822631836
2018-11-29,99.5208969116211
2018-11-30,99.71257781982422
2018-12-03,100.10547637939452
2018-12-04,98.6488265991211
2018-12-06,97.39342498779295
2018-12-07,95.61096954345705
2018-12-10,94.97847747802734
2018-12-11,94.5568389892578
2018-12-12,95.76429748535156
2018-12-13,96.1380386352539
2018-12-14,96.15721893310548
2018-12-17,94.52808380126952
2018-12-18,93.85726165771484
2018-12-19,91.60521697998048
2018-12-20,91.04939270019533
2018-12-21,89.65027618408203
2018-12-24,85.96074676513672
2018-12-26,87.9444580078125
2018-12-27,88.51943969726562
2018-12-28,88.835693359375
2018-12-31,90.1485824584961
2019-01-02,86.42073822021484
2019-01-03,85.37616729736328
2019-01-04,87.27363586425781
2019-01-07,88.11695098876953
2019-01-08,89.62152862548828
2019-01-09,89.58317565917969
2019-01-10,90.63731384277344
2019-01-11,90.78106689453124
2019-01-14,90.04317474365234
2019-01-15,90.85774230957033
2019-01-16,90.76190948486328
2019-01-17,91.9310531616211
2019-01-18,93.61767578125
2019-01-22,92.4197769165039
2019-01-23,93.32059478759766
2019-01-24,93.08101654052734
2019-01-25,93.33020782470705
2019-01-28,93.79975128173828
2019-01-29,94.18441772460938
2019-01-30,94.20365142822266
2019-01-31,95.31918334960938
2019-02-01,95.73268127441406
2019-02-04,96.02117919921876
2019-02-05,97.19439697265624
2019-02-06,97.69445037841795
2019-02-07,98.04064178466795
2019-02-08,97.50213623046876
2019-02-11,97.8002471923828
2019-02-12,98.3964614868164
2019-02-13,98.85806274414062
2019-02-14,97.8675537109375
2019-02-15,98.0310287475586
2019-02-19,97.6559829711914
2019-02-20,98.3387680053711
2019-02-21,99.1657943725586
2019-02-22,98.13682556152344
2019-02-25,97.66560363769533
2019-02-26,97.42518615722656
2019-02-27,97.5213623046875
2019-02-28,97.8290786743164
2019-03-01,96.94436645507812
2019-03-04,97.71369171142578
2019-03-05,97.57906341552734
2019-03-06,96.63664245605467
2019-03-07,96.0500259399414
2019-03-08,96.6174087524414
2019-03-11,98.10797882080078
2019-03-12,98.3387680053711
2019-03-13,98.3580093383789
2019-03-14,98.9446029663086
2019-03-15,99.0984878540039
2019-03-18,99.7331771850586
2019-03-19,99.62738800048828
2019-03-20,99.96397399902344
2019-03-21,101.49299621582033
2019-03-22,99.84856414794922
2019-03-25,100.50249481201172
2019-03-26,101.3968276977539
2019-03-27,101.4737548828125
2019-03-28,102.1180648803711
2019-03-29,102.31040954589844
2019-04-01,103.57979583740234
2019-04-02,103.10857391357422
2019-04-03,103.34899139404295
2019-04-04,103.954833984375
2019-04-05,104.57028198242188
2019-04-08,104.81069946289062
2019-04-09,104.01252746582033
2019-04-10,104.85879516601562
2019-04-11,105.45502471923828
2019-04-12,106.08008575439452
2019-04-15,105.67619323730467
2019-04-16,105.41654205322266
2019-04-17,103.5701675415039
2019-04-18,104.06060791015624
2019-04-22,104.75299835205078
2019-04-23,105.83967590332033
2019-04-24,105.72428894042967
2019-04-25,105.25305938720705
2019-04-26,107.14752197265624
2019-04-29,107.0513687133789
2019-04-30,107.3214874267578
2019-05-01,108.836181640625
2019-05-02,109.0194854736328
2019-05-03,109.83954620361328
2019-05-06,110.96833038330078
2019-05-07,109.95532989501952
2019-05-08,109.97462463378906
2019-05-09,109.0194854736328
2019-05-10,109.59835052490234
2019-05-13,108.82655334472656
2019-05-14,109.00020599365234
2019-05-15,109.25103759765624
2019-05-16,110.09040832519533
2019-05-17,109.77201080322266
2019-05-20,109.05809783935548
2019-05-21,109.48258972167967
2019-05-22,109.16421508789062
2019-05-23,108.98088836669922
2019-05-24,108.95196533203124
2019-05-28,108.92301940917967
2019-05-29,108.73004913330078
2019-05-30,109.51153564453124
2019-05-31,109.2799835205078
2019-06-03,110.01321411132812
2019-06-04,111.64368438720705
2019-06-05,113.00401306152344
2019-06-06,115.99481964111328
2019-06-07,117.6252899169922
2019-06-10,118.87947845458984
2019-06-11,118.26203155517578
2019-06-12,117.33585357666016
2019-06-13,116.46753692626952
2019-06-14,115.85974884033205
2019-06-17,115.93692779541016
2019-06-18,115.28087615966795
2019-06-19,115.2037124633789
2019-06-20,115.58960723876952
2019-06-21,115.17475128173828
2019-06-24,114.59588623046876
2019-06-25,116.79557800292967
2019-06-26,115.0396728515625
2019-06-27,117.26831817626952
2019-06-28,119.96002960205078
2019-07-01,119.89248657226562
2019-07-02,119.18822479248048
2019-07-03,121.48438262939452
2019-07-05,120.22051239013672
2019-07-08,119.62235260009766
2019-07-09,119.69953918457033
2019-07-10,119.22679901123048
2019-07-11,119.65130615234376
2019-07-12,119.06280517578124
2019-07-15,118.5900650024414
2019-07-16,118.82160186767578
2019-07-17,119.1785659790039
2019-07-18,119.97931671142578
2019-07-19,119.05314636230467
2019-07-22,118.82160186767578
2019-07-23,120.12405395507812
2019-07-24,118.947021484375
2019-07-25,118.5900650024414
2019-07-26,120.10476684570312
2019-07-29,120.53890228271484
2019-07-30,119.79387664794922
2019-07-31,117.09437561035156
2019-08-01,113.74662017822266
2019-08-02,114.19168853759766
2019-08-05,113.28218841552734
2019-08-06,115.8365478515625
2019-08-07,117.71361541748048
2019-08-08,118.88436889648438
2019-08-09,117.1524429321289
2019-08-12,116.12682342529295
2019-08-13,117.28790283203124
2019-08-14,115.22696685791016
2019-08-15,114.49163818359376
2019-08-16,116.34935760498048
2019-08-19,116.32032775878906
2019-08-20,115.0237808227539
2019-08-21,115.4592056274414
2019-08-22,116.62995147705078
2019-08-23,116.3590316772461
2019-08-26,117.06535339355467
2019-08-27,117.5588150024414
2019-08-28,117.90714263916016
2019-08-29,117.74264526367188
2019-08-30,118.25546264648438
2019-09-03,115.76882934570312
2019-09-04,117.98454284667967
2019-09-05,117.26853942871094
2019-09-06,116.95892333984376
2019-09-09,115.23664855957033
2019-09-10,115.246337890625
2019-09-11,114.78191375732422
2019-09-12,114.22071838378906
2019-09-13,114.55936431884766
2019-09-16,112.70166015625
2019-09-17,113.2144546508789
2019-09-18,114.4626235961914
2019-09-19,114.02721405029295
2019-09-20,114.22071838378906
2019-09-23,114.2690887451172
2019-09-24,114.66580200195312
2019-09-25,115.2560043334961
2019-09-26,115.06250762939452
2019-09-27,114.82061767578124
2019-09-30,114.60774993896484
2019-10-01,113.85304260253906
2019-10-02,111.60830688476562
2019-10-03,111.25997924804688
2019-10-04,113.52407836914062
2019-10-07,112.77904510498048
2019-10-08,111.0567855834961
2019-10-09,112.70166015625
2019-10-10,112.53716278076172
2019-10-11,112.5565185546875
2019-10-14,112.09207916259766
2019-10-15,111.44381713867188
2019-10-16,111.72441864013672
2019-10-17,112.7693862915039
2019-10-18,113.95948028564452
2019-10-21,114.07559204101562
2019-10-22,112.87582397460938
2019-10-23,113.56278228759766
2019-10-24,113.53374481201172
2019-10-25,114.05623626708984
2019-10-28,114.36585998535156
2019-10-29,115.01610565185548
2019-10-30,115.73428344726562
2019-10-31,114.66671752929688
2019-11-01,107.52369689941406
2019-11-04,105.46620178222656
2019-11-05,105.4564971923828
2019-11-06,106.26202392578124
2019-11-07,106.1746826171875
2019-11-08,105.78646850585938
2019-11-11,105.3788604736328
2019-11-12,105.02947235107422
2019-11-13,106.3882064819336
2019-11-14,107.21314239501952
2019-11-15,106.71817779541016
2019-11-18,107.08697509765624
2019-11-19,107.24225616455078
2019-11-20,107.43634796142578
2019-11-21,108.01868438720705
2019-11-22,106.87346649169922
2019-11-25,107.67898559570312
2019-11-26,109.24150848388672
2019-11-27,109.50357818603516
2019-11-29,108.81450653076172
2019-12-02,108.7077407836914
2019-12-03,109.38710021972656
2019-12-04,108.4845199584961
2019-12-05,108.64949798583984
2019-12-06,108.77567291259766
2019-12-09,109.3094482421875
2019-12-10,108.63980102539062
2019-12-11,109.251220703125
2019-12-12,110.81375885009766
2019-12-13,110.6099624633789
2019-12-16,110.94963836669922
2019-12-17,110.00821685791016
2019-12-18,109.74617767333984
2019-12-19,109.92089080810548
2019-12-20,111.57076263427734
2019-12-23,111.96868133544922
2019-12-24,111.34754180908205
2019-12-26,111.43489837646484
2019-12-27,111.62899780273438
2019-12-30,112.3471908569336
2019-12-31,112.21131134033205
2020-01-02,110.32848358154295
2020-01-03,110.67788696289062
2020-01-06,110.68759155273438
2020-01-07,109.58120727539062
2020-01-08,109.88207244873048
2020-01-09,111.27962493896484
2020-01-10,112.37630462646484
2020-01-13,112.77420806884766
2020-01-14,112.70626831054688
2020-01-15,113.2691650390625
2020-01-16,114.73464965820312
2020-01-17,113.8611831665039
2020-01-21,112.22100830078124
2020-01-22,112.25983428955078
2020-01-23,113.90970611572266
2020-01-24,113.66708374023438
2020-01-27,113.05565643310548
2020-01-28,112.89989471435548
2020-01-29,112.87068939208984
2020-01-30,113.45479583740234
2020-01-31,112.45207977294922
2020-02-03,114.13628387451172
2020-02-04,113.85393524169922
2020-02-05,114.74960327148438
2020-02-06,114.41859436035156
2020-02-07,113.61055755615234
2020-02-10,112.73439025878906
2020-02-11,112.97776794433594
2020-02-12,111.6732406616211
2020-02-13,113.1238021850586
2020-02-14,113.58135986328124
2020-02-18,112.2086944580078
2020-02-19,111.96531677246094
2020-02-20,111.88742065429688
2020-02-21,109.0155258178711
2020-02-24,106.31884765625
2020-02-25,104.10894775390624
2020-02-26,101.90877532958984
2020-02-27,99.68914794921876
2020-02-28,98.3943328857422
2020-03-02,100.837890625
2020-03-03,100.03960418701172
2020-03-04,104.59571075439452
2020-03-05,101.22730255126952
2020-03-06,104.4594268798828
2020-03-09,98.7642822265625
2020-03-10,101.2370376586914
2020-03-11,96.45702362060548
2020-03-12,91.90090942382812
2020-03-13,93.83824157714844
2020-03-16,85.55352783203125
2020-03-17,93.89664459228516
2020-03-18,94.18870544433594
2020-03-19,96.26232147216795
2020-03-20,90.06095123291016
2020-03-23,81.70809936523438
2020-03-24,85.72875213623047
2020-03-25,87.79264068603516
2020-03-26,93.65325164794922
2020-03-27,91.51152801513672
2020-03-30,97.8199691772461
2020-03-31,96.90486145019533
2020-04-01,93.66300964355467
2020-04-02,93.6045913696289
2020-04-03,91.69647216796876
2020-04-06,98.09255981445312
2020-04-07,98.44303131103516
2020-04-08,101.35386657714844
2020-04-09,104.43021392822266
2020-04-13,99.64045715332033
2020-04-14,101.26625061035156
2020-04-15,98.25804138183594
2020-04-16,99.1536865234375
2020-04-17,100.21483612060548
2020-04-20,104.10894775390624
2020-04-21,103.31066131591795
2020-04-22,103.48589324951172
2020-04-23,102.23978424072266
2020-04-24,101.36359405517578
2020-04-27,109.59964752197266
2020-04-28,108.58391571044922
2020-04-29,107.50959777832033
2020-04-30,104.57965087890624
2020-05-01,103.6615982055664
2020-05-04,104.3159637451172
2020-05-05,103.09515380859376
2020-05-06,102.41150665283205
2020-05-07,103.00724792480467
2020-05-08,105.01915740966795
2020-05-11,103.82762908935548
2020-05-12,101.52274322509766
2020-05-13,100.0284652709961
2020-05-14,100.06754302978516
2020-05-15,99.12995147705078
2020-05-18,101.71807861328124
2020-05-19,101.30787658691406
2020-05-20,101.97200012207033
2020-05-21,102.63612365722656
2020-05-22,102.6458969116211
2020-05-26,106.9919891357422
2020-05-27,109.92192840576172
2020-05-28,108.99411010742188
2020-05-29,108.7890167236328
2020-06-01,108.81832122802734
2020-06-02,109.45314025878906
2020-06-03,110.63488006591795
2020-06-04,109.52149963378906
2020-06-05,110.75208282470705
2020-06-08,110.9278793334961
2020-06-09,109.84378051757812
2020-06-10,109.0331802368164
2020-06-11,101.81572723388672
2020-06-12,102.89982604980467
2020-06-15,102.94864654541016
2020-06-16,104.88241577148438
2020-06-17,104.4136199951172
2020-06-18,104.49176025390624
2020-06-19,105.0875015258789
2020-06-22,105.03868103027344
2020-06-23,104.93125915527344
2020-06-24,103.46627807617188
2020-06-25,105.0875015258789
2020-06-26,105.20471954345705
2020-06-29,106.69898986816406
2020-06-30,109.36524200439452
2020-07-01,109.85355377197266
2020-07-02,112.28543090820312
2020-07-06,112.5686492919922
2020-07-07,112.46121978759766
2020-07-08,110.29305267333984
2020-07-09,111.10367584228516
2020-07-10,112.26588439941406
2020-07-13,110.78138732910156
2020-07-14,113.59412384033205
2020-07-15,115.14701080322266
2020-07-16,114.5024185180664
2020-07-17,116.61197662353516
2020-07-20,116.50455474853516
2020-07-21,115.42046356201172
2020-07-22,115.73300170898438
2020-07-23,115.67439270019533
2020-07-24,116.07482147216795
2020-07-27,117.05147552490234
2020-07-28,115.640869140625
2020-07-29,116.3853530883789
2020-07-30,115.50371551513672
2020-07-31,112.8490219116211
2020-08-03,116.23841857910156
2020-08-04,116.19922637939452
2020-08-05,115.94452667236328
2020-08-06,115.25881958007812
2020-08-07,116.81637573242188
2020-08-10,114.61228942871094
2020-08-11,114.35759735107422
2020-08-12,115.68003845214844
2020-08-13,116.10126495361328
2020-08-14,116.07188415527344
2020-08-17,115.83677673339844
2020-08-18,115.47432708740234
2020-08-19,115.28821563720705
2020-08-20,115.15106964111328
2020-08-21,115.39596557617188
2020-08-24,116.67923736572266
2020-08-25,115.71922302246094
2020-08-26,116.17963409423828
2020-08-27,117.60004425048828
2020-08-28,115.71922302246094
2020-08-31,115.9739227294922
2020-09-01,117.06127166748048
2020-09-02,119.76494598388672
2020-09-03,116.73800659179688
2020-09-04,116.29719543457033
2020-09-08,113.69146728515624
2020-09-09,115.484130859375
2020-09-10,114.79842376708984
2020-09-11,115.94452667236328
2020-09-14,116.64984893798828
2020-09-15,115.91514587402344
2020-09-16,115.36656951904295
2020-09-17,113.59351348876952
2020-09-18,112.69229125976562
2020-09-21,111.13472747802734
2020-09-22,111.99677276611328
2020-09-23,109.8514633178711
2020-09-24,109.96902465820312
2020-09-25,109.81228637695312
2020-09-28,110.06697845458984
2020-09-29,110.3216781616211
2020-09-30,110.88983917236328
2020-10-01,111.37962341308594
2020-10-02,110.54698181152344
2020-10-05,112.21229553222656
2020-10-06,112.22208404541016
2020-10-07,112.63351440429688
2020-10-08,114.14208221435548
2020-10-09,114.4261703491211
2020-10-12,115.63107299804688
2020-10-13,115.16085815429688
2020-10-14,114.06372833251952
2020-10-15,113.96575164794922
2020-10-16,113.97555541992188
2020-10-19,112.80004119873048
2020-10-20,114.57311248779295
2020-10-21,115.3371810913086
2020-10-22,115.8955535888672
2020-10-23,115.93473815917967
2020-10-26,115.06289672851562
2020-10-27,113.6381378173828
2020-10-28,110.38570404052734
2020-10-29,110.97527313232422
2020-10-30,112.10526275634766
2020-11-02,116.13395690917967
2020-11-03,117.4801025390625
2020-11-04,116.97898864746094
2020-11-05,120.77183532714844
2020-11-06,121.44982147216795
2020-11-09,121.02730560302734
2020-11-10,125.39006805419922
2020-11-11,123.09076690673828
2020-11-12,122.10816955566406
2020-11-13,122.89425659179688
2020-11-16,124.65311431884766
2020-11-17,125.1444091796875
2020-11-18,124.17163848876952
2020-11-19,125.01667785644533
2020-11-20,125.58657836914062
2020-11-23,124.65311431884766
2020-11-24,125.6553726196289
2020-11-25,124.09303283691406
2020-11-27,125.02650451660156
2020-11-30,124.12250518798828
2020-12-01,125.59642028808594
2020-12-02,124.06355285644533
2020-12-03,123.68034362792967
2020-12-04,125.4588623046875
2020-12-07,126.39234161376952
2020-12-08,126.94258880615234
2020-12-09,127.27666473388672
2020-12-10,128.2003173828125
2020-12-11,128.1806640625
2020-12-14,126.17615509033205
2020-12-15,127.99398040771484
2020-12-16,128.8193817138672
2020-12-17,130.82386779785156
2020-12-18,131.76718139648438
2020-12-21,132.5434112548828
2020-12-22,132.16021728515625
2020-12-23,132.18968200683594
2020-12-24,133.33934020996094
2020-12-28,133.31967163085938
2020-12-29,132.95611572265625
2020-12-30,134.01731872558594
2020-12-31,134.5086212158203
2021-01-04,131.6688995361328
2021-01-05,131.37411499023438
2021-01-06,135.32421875
2021-01-07,137.26976013183594
2021-01-08,136.65072631835938
2021-01-11,136.37557983398438
2021-01-12,135.7467041015625
2021-01-13,136.16925048828125
2021-01-14,137.0240936279297
2021-01-15,136.41488647460938
2021-01-19,134.87217712402344
2021-01-20,138.17373657226562
2021-01-21,135.7073974609375
2021-01-22,135.78602600097656
2021-01-25,137.1420135498047
2021-01-26,136.78736877441406
2021-01-27,131.2705535888672
2021-01-28,133.24082946777344
2021-01-29,130.9947052001953
2021-02-01,132.09805297851562
2021-02-02,134.90573120117188
2021-02-03,134.53135681152344
2021-02-04,135.94996643066406
2021-02-05,138.57044982910156
2021-02-08,139.87086486816406
2021-02-09,140.0580291748047
2021-02-10,141.12200927734375
2021-02-11,140.8461456298828
2021-02-12,142.4814910888672
2021-02-16,141.46678161621094
2021-02-17,141.0825958251953
2021-02-18,138.89556884765625
2021-02-19,130.2755584716797
2021-02-22,127.18219757080078
2021-02-23,126.37437438964844
2021-02-24,126.84724426269533
2021-02-25,128.36436462402344
2021-02-26,128.13778686523438
2021-03-01,128.65989685058594
2021-03-02,128.4136199951172
2021-03-03,129.1032257080078
2021-03-04,128.46286010742188
2021-03-05,132.09805297851562
2021-03-08,135.66429138183594
2021-03-09,135.6446075439453
2021-03-10,137.3094940185547
2021-03-11,137.3094940185547
2021-03-12,138.6788330078125
2021-03-15,140.0186309814453
2021-03-16,138.412841796875
2021-03-17,139.18125915527344
2021-03-18,139.40782165527344
2021-03-19,137.24050903320312
2021-03-22,139.48666381835938
2021-03-23,138.6788330078125
2021-03-24,139.73294067382812
2021-03-25,140.3535919189453
2021-03-26,142.66868591308594
2021-03-29,142.61940002441406
2021-03-30,140.9545135498047
2021-03-31,139.5654754638672
2021-04-01,141.73277282714844
2021-04-05,142.54058837890625
2021-04-06,143.8015899658203
2021-04-07,141.4569549560547
2021-04-08,141.54559326171875
2021-04-09,143.0430145263672
2021-04-12,144.03802490234375
2021-04-13,144.15623474121094
2021-04-14,143.64395141601562
2021-04-15,145.0133056640625
2021-04-16,145.8802490234375
2021-04-19,147.48602294921875
2021-04-20,148.18548583984375
2021-04-21,149.68289184570312
2021-04-22,147.8406982421875
2021-04-23,149.20018005371094
2021-04-26,148.67803955078125
2021-04-27,149.76446533203125
2021-04-28,149.25088500976562
2021-04-29,149.05335998535156
2021-04-30,148.9447021484375
2021-05-03,150.57431030273438
2021-05-04,153.10264587402344
2021-05-05,152.2730255126953
2021-05-06,154.5841064453125
2021-05-07,155.61122131347656
2021-05-10,153.5569305419922
2021-05-11,152.08538818359375
2021-05-12,149.73480224609375
2021-05-13,152.7075958251953
2021-05-14,151.6409454345703
2021-05-17,151.2162628173828
2021-05-18,149.05335998535156
2021-05-19,147.6904296875
2021-05-20,147.88795471191406
2021-05-21,147.77931213378906
2021-05-24,147.41387939453125
2021-05-25,145.90280151367188
2021-05-26,146.0312042236328
2021-05-27,144.95469665527344
2021-05-28,145.48797607421875
2021-06-01,145.06332397460938
2021-06-02,143.85841369628906
2021-06-03,143.6016082763672
2021-06-04,143.7596435546875
2021-06-07,140.7572479248047
2021-06-08,141.01402282714844
2021-06-09,140.4115753173828
2021-06-10,143.19671630859375
2021-06-11,144.02630615234375
2021-06-14,141.7152557373047
2021-06-15,142.54486083984375
2021-06-16,140.85598754882812
2021-06-17,139.75973510742188
2021-06-18,138.3671875
2021-06-21,139.82887268066406
2021-06-22,139.8782501220703
2021-06-23,138.4363250732422
2021-06-24,138.44618225097656
2021-06-25,139.17703247070312
2021-06-28,138.9696502685547
2021-06-29,138.54495239257812
2021-06-30,139.09800720214844
2021-07-01,139.3745574951172
2021-07-02,138.67335510253906
2021-07-06,138.3177947998047
2021-07-07,139.2758026123047
2021-07-08,137.5474395751953
2021-07-09,139.43380737304688
2021-07-12,138.68321228027344
2021-07-13,136.78697204589844
2021-07-14,136.7277069091797
2021-07-15,136.84622192382812
2021-07-16,137.32028198242188
2021-07-19,135.4339141845703
2021-07-20,135.32528686523438
2021-07-21,134.3771514892578
2021-07-22,133.00433349609375
2021-07-23,134.55491638183594
2021-07-26,135.02899169921875
2021-07-27,135.06846618652344
2021-07-28,135.94747924804688
2021-07-29,137.33016967773438
2021-07-30,127.32545471191406
2021-08-02,128.30320739746094
2021-08-03,127.4117431640625
2021-08-04,125.56935119628906
2021-08-05,126.2924346923828
2021-08-06,127.213623046875
2021-08-09,128.84800720214844
2021-08-10,127.9763412475586
2021-08-11,130.38333129882812
2021-08-12,131.42335510253906
2021-08-13,131.7898712158203
2021-08-16,131.62147521972656
2021-08-17,131.750244140625
2021-08-18,130.79934692382812
2021-08-19,131.1559295654297
2021-08-20,132.2554168701172
2021-08-23,131.7007293701172
2021-08-24,131.7007293701172
2021-08-25,132.85964965820312
2021-08-26,131.403564453125
2021-08-27,133.255859375
2021-08-30,133.94923400878906
2021-08-31,133.52330017089844
2021-09-01,133.73130798339844
2021-09-02,133.86007690429688
2021-09-03,133.86997985839844
2021-09-07,129.83851623535156
2021-09-08,129.6404266357422
2021-09-09,127.4117431640625
2021-09-10,124.64816284179688
2021-09-13,123.57839965820312
2021-09-14,123.40009307861328
2021-09-15,123.4496078491211
2021-09-16,121.14169311523438
2021-09-17,120.0818328857422
2021-09-20,120.70584869384766
2021-09-21,118.92290496826172
2021-09-22,119.14081573486328
2021-09-23,119.86389923095705
2021-09-24,119.22006225585938
2021-09-27,119.19034576416016
2021-09-28,118.89318084716795
2021-09-29,119.2398681640625
2021-09-30,118.2196273803711
2021-10-01,120.42850494384766
2021-10-04,121.13178253173828
2021-10-05,120.50775909423828
2021-10-06,121.93411254882812
2021-10-07,123.0831298828125
2021-10-08,123.33075714111328
2021-10-11,123.39019012451172
2021-10-12,123.31094360351562
2021-10-13,126.18348693847656
2021-10-14,126.79759979248048
2021-10-15,127.00562286376952
2021-10-18,126.60940551757812
2021-10-19,126.34196472167967
2021-10-20,126.9461898803711
2021-10-21,127.84757995605467
2021-10-22,126.55987548828124
2021-10-25,126.57969665527344
2021-10-26,126.06307983398438
2021-10-27,124.50331115722656
2021-10-28,125.15901184082033
2021-10-29,119.9928970336914
2021-11-01,124.36421966552734
2021-11-02,126.56975555419922
2021-11-03,127.563232421875
2021-11-04,127.7122573852539
2021-11-05,130.64303588867188
2021-11-08,129.78863525390625
2021-11-09,129.51046752929688
2021-11-10,128.7355499267578
2021-11-11,128.98391723632812
2021-11-12,130.6331024169922
2021-11-15,131.45770263671875
2021-11-16,133.36517333984375
2021-11-17,133.5738067626953
2021-11-18,128.79515075683594
2021-11-19,129.3018341064453
2021-11-22,127.96063232421876
2021-11-23,128.85476684570312
2021-11-24,127.34466552734376
2021-11-26,125.78490447998048
2021-11-29,125.04972839355467
2021-11-30,118.8106460571289
2021-12-01,116.02890014648438
2021-12-02,118.8702621459961
2021-12-03,118.02580261230467
2021-12-06,119.4365463256836
2021-12-07,119.49615478515624
2021-12-08,120.03263854980467
2021-12-09,118.75104522705078
2021-12-10,118.9596710205078
2021-12-13,117.83704376220705
2021-12-14,116.18785095214844
2021-12-15,117.59860229492188
2021-12-16,117.91651916503906
2021-12-17,115.134765625
2021-12-20,112.92922973632812
2021-12-21,114.63802337646484
2021-12-22,114.63802337646484
2021-12-23,115.5718994140625
2021-12-27,119.10869598388672
2021-12-28,120.64859771728516
2021-12-29,121.30429077148438
2021-12-30,121.08572387695312
2021-12-31,121.68181610107422
2021-08-20,132.69236755371094
2021-08-23,132.13584899902344
2021-08-24,132.13584899902344
2021-08-25,133.298583984375
2021-08-26,131.83770751953125
2021-08-27,133.69610595703125
2021-08-30,134.3917694091797
2021-08-31,133.9644317626953
2021-09-01,134.1731414794922
2021-09-02,134.3023223876953
2021-09-03,134.312255859375
2021-09-07,130.2675018310547
2021-09-08,130.06874084472656
2021-09-09,127.83268737792967
2021-09-10,125.05997467041016
2021-08-20,132.69236755371094
2021-08-23,132.13584899902344
2021-08-24,132.13584899902344
2021-08-25,133.298583984375
2021-08-26,131.83770751953125
2021-08-27,133.69610595703125
2021-08-30,134.3917694091797
2021-08-31,133.9644317626953
2021-09-01,134.1731414794922
2021-09-02,134.3023223876953
2021-09-03,134.312255859375
2021-09-07,130.2675018310547
2021-09-08,130.06874084472656
2021-09-09,127.83268737792967
2021-09-10,125.05997467041016
