,Date,Adj Close,daily_return
0,2017-01-03,68.16770935058594,
1,2017-01-04,69.29731750488281,0.01657101529534044
2,2017-01-05,68.58783721923828,-0.010238207064718452
3,2017-01-06,68.6158218383789,0.00040801139495294514
4,2017-01-09,68.78385925292969,0.0024489601676211947
5,2017-01-10,67.98099517822266,-0.011672274330446708
6,2017-01-11,68.1864013671875,0.003021523713007346
7,2017-01-12,68.45712280273438,0.003970314169962297
8,2017-01-13,68.6158218383789,0.002318225323343359
9,2017-01-17,68.46643829345703,-0.0021771005712609703
10,2017-01-18,68.59716796875,0.0019093979262165828
11,2017-01-19,67.89700317382812,-0.010206905265255806
12,2017-01-20,66.87943267822266,-0.014986972149570565
13,2017-01-23,67.63560485839844,0.011306498124975972
14,2017-01-24,68.65316772460938,0.01504478104899487
15,2017-01-25,68.55049896240234,-0.0014954701379383817
16,2017-01-26,68.4477767944336,-0.0014984889902127652
17,2017-01-27,68.55982208251953,0.0016369456150846506
18,2017-01-30,68.2035140991211,-0.00519703774857494
19,2017-01-31,68.41915130615234,0.0031616729706605007
20,2017-02-01,69.32868194580078,0.013293509525989178
21,2017-02-02,68.75672149658203,-0.00824998302529234
22,2017-02-03,69.17864227294922,0.0061364295327572815
23,2017-02-06,68.77546691894531,-0.0058280321896626575
24,2017-02-07,68.19412994384766,-0.008452679438480382
25,2017-02-08,68.9629898071289,0.011274575449739421
26,2017-02-09,68.98174285888672,0.0002719292160948683
27,2017-02-10,70.12565612792969,0.016582840932027887
28,2017-02-13,69.7881088256836,-0.0048134637290282445
29,2017-02-14,69.22553253173828,-0.008061205603815846
30,2017-02-15,68.63482666015625,-0.008533063596314117
31,2017-02-16,69.57246398925781,0.013661247135426713
32,2017-02-17,69.29119110107422,-0.004042876621805802
33,2017-02-21,69.93812561035156,0.009336461085416525
34,2017-02-22,69.62872314453125,-0.004423945639379867
35,2017-02-23,69.49744415283203,-0.0018854143199885653
36,2017-02-24,69.72245788574219,0.003237726734458324
37,2017-02-27,69.83499908447266,0.0016141312590398638
38,2017-02-28,69.86312866210938,0.0004028005728573536
39,2017-03-01,71.31647491455078,0.020802765067543305
40,2017-03-02,71.0820541381836,-0.003287049404055109
41,2017-03-03,71.29771423339844,0.0030339598064457185
42,2017-03-06,70.9320297241211,-0.00512897942394408
43,2017-03-07,70.76325225830078,-0.0023794252959734585
44,2017-03-08,71.20394897460938,0.006227762323585129
45,2017-03-09,71.11956787109375,-0.0011850621311145781
46,2017-03-10,72.00093078613281,0.012392692214280077
47,2017-03-13,71.96341705322266,-0.0005210173327007128
48,2017-03-14,71.75713348388672,-0.002866506035745564
49,2017-03-15,72.42285919189453,0.009277484699933058
50,2017-03-16,72.1790771484375,-0.0033660925041787415
51,2017-03-17,72.2728500366211,0.0012991699518511979
52,2017-03-20,72.98544311523438,0.009859761698233882
53,2017-03-21,71.98218536376953,-0.013745997950314948
54,2017-03-22,72.05719757080078,0.0010420940494120234
55,2017-03-23,72.34786224365234,0.004033804847405564
56,2017-03-24,71.8415298461914,-0.006998581323048869
57,2017-03-27,71.8415298461914,0.0
58,2017-03-28,72.26347351074219,0.005873255559202928
59,2017-03-29,72.23533630371094,-0.00038936970040703844
60,2017-03-30,72.06657409667969,-0.0023362832606149686
61,2017-03-31,72.18846130371094,0.0016913140184482423
62,2017-04-03,71.68211364746094,-0.00701424641979409
63,2017-04-04,71.95404815673828,0.003793617339671984
64,2017-04-05,71.33519744873047,-0.00860063782179099
65,2017-04-06,71.75713348388672,0.005914836577826765
66,2017-04-07,71.41021728515625,-0.004834588310420274
67,2017-04-10,72.09468841552734,0.0095850587828048
68,2017-04-11,72.12281799316406,0.0003901754519637368
69,2017-04-12,71.47586059570312,-0.008970217962396498
70,2017-04-13,71.07266998291016,-0.00564093400810628
71,2017-04-17,72.45099639892578,0.01939319876890866
72,2017-04-18,72.73229217529297,0.0038825660149424124
73,2017-04-19,72.7135238647461,-0.0002580464603211263
74,2017-04-20,72.96669006347656,0.0034816934357546625
75,2017-04-21,73.1260757446289,0.002184362220811753
76,2017-04-24,73.416748046875,0.00397494736708115
77,2017-04-25,73.81995391845703,0.005492014864572736
78,2017-04-26,74.39189910888672,0.007747839981876226
79,2017-04-27,73.87621307373047,-0.006932018692000885
80,2017-04-28,75.29202270507812,0.019164621093052503
81,2017-05-01,75.05668640136719,-0.0031256472499451293
82,2017-05-02,75.4991226196289,0.005894694256761923
83,2017-05-03,75.73448181152344,0.0031173765168144296
84,2017-05-04,76.61937713623047,0.011684180092619068
85,2017-05-05,77.10889434814453,0.00638894794255096
86,2017-05-08,77.67373657226562,0.007325253836098833
87,2017-05-09,77.64550018310547,-0.0003635255674082627
88,2017-05-10,78.01264953613281,0.0047285335552160745
89,2017-05-11,77.69255065917969,-0.004103166330799546
90,2017-05-12,77.5984115600586,-0.0012116875855198161
91,2017-05-15,77.78670501708984,0.002426511744837878
92,2017-05-16,77.93731689453125,0.0019362161876932404
93,2017-05-17,77.45722198486328,-0.006160013313233015
94,2017-05-18,77.325439453125,-0.001701358870887959
95,2017-05-19,77.53251647949219,0.0026779935275080824
96,2017-05-22,77.98439025878906,0.005828184093784605
97,2017-05-23,78.3138656616211,0.004224889131513088
98,2017-05-24,78.50214385986328,0.00240414895435892
99,2017-05-25,79.21760559082031,0.009113913273938401
100,2017-05-26,79.42472076416016,0.0026145093858258583
101,2017-05-30,79.5847396850586,0.0020147243749661925
102,2017-05-31,80.02720642089844,0.005559693197349391
103,2017-06-01,81.20394134521484,0.014704185950555893
104,2017-06-02,81.26982116699219,0.0008112884754851724
105,2017-06-05,80.81796264648438,-0.00555997926437346
106,2017-06-06,80.46965026855469,-0.004309838636409102
107,2017-06-07,80.6673355102539,0.0024566434803614534
108,2017-06-08,80.25312042236328,-0.005134855208375755
109,2017-06-09,80.62968444824219,0.004692204164736369
110,2017-06-12,80.43199920654297,-0.002451767522743009
111,2017-06-13,81.12862396240234,0.008661039918583802
112,2017-06-14,81.19451904296875,0.0008122297328367889
113,2017-06-15,81.1756820678711,-0.0002319981116913894
114,2017-06-16,80.9120864868164,-0.003247223482942818
115,2017-06-19,81.66520690917969,0.00930788532422766
116,2017-06-20,81.7969970703125,0.0016137859208436023
117,2017-06-21,81.90055084228516,0.001265985007782744
118,2017-06-22,81.7311019897461,-0.002068958643090979
119,2017-06-23,81.71227264404297,-0.00023038164474387113
120,2017-06-26,82.03234100341797,0.003917016979435806
121,2017-06-27,81.30748748779297,-0.008836192003770837
122,2017-06-28,81.83466339111328,0.006483731321785813
123,2017-06-29,81.4204330444336,-0.005061795692858806
124,2017-06-30,81.76875305175781,0.004278041694203871
125,2017-07-03,81.97586822509766,0.0025329378963225846
126,2017-07-05,82.17355346679688,0.0024115053122266694
127,2017-07-06,82.19236755371094,0.00022895549870138865
128,2017-07-07,82.92665100097656,0.008933718167758009
129,2017-07-10,83.12434387207031,0.002383948570302552
130,2017-07-11,83.00196075439453,-0.0014722897285557313
131,2017-07-12,83.76451110839844,0.009187136629944304
132,2017-07-13,83.43502044677734,-0.003933535303449753
133,2017-07-14,84.18812561035156,0.009026247725972825
134,2017-07-17,84.52703094482422,0.00402557168265294
135,2017-07-18,84.47996520996094,-0.0005568128246927762
136,2017-07-19,84.80943298339844,0.0038999515757216496
137,2017-07-20,84.44230651855469,-0.004328839987830291
138,2017-07-21,84.263427734375,-0.002118355023146834
139,2017-07-24,84.51852416992188,0.0030273683661554696
140,2017-07-25,83.79105377197266,-0.008607230250337383
141,2017-07-26,83.19583892822266,-0.007103560785496343
142,2017-07-27,83.13916778564453,-0.0006811776082578103
143,2017-07-28,77.76345825195312,-0.06465916940077454
144,2017-07-31,76.45968627929688,-0.01676586923940593
145,2017-08-01,77.9524154663086,0.019523088043534198
146,2017-08-02,77.70677947998047,-0.003151101667071332
147,2017-08-03,77.70677947998047,0.0
148,2017-08-04,77.8106918334961,0.0013372366505344235
149,2017-08-07,78.1697006225586,0.004613874785109662
150,2017-08-08,78.1697006225586,0.0
151,2017-08-09,77.924072265625,-0.0031422450767670806
152,2017-08-10,77.00763702392578,-0.011760617932996431
153,2017-08-11,77.60286712646484,0.007729494444221441
154,2017-08-14,78.330322265625,0.009374075547681215
155,2017-08-15,78.17916870117188,-0.0019296941475683838
156,2017-08-16,78.93497467041016,0.009667613275951226
157,2017-08-17,77.5933837890625,-0.016996152680727628
158,2017-08-18,77.61229705810547,0.0002437484759574282
159,2017-08-21,76.98876190185547,-0.008033973737218258
160,2017-08-22,77.58395385742188,0.007730893975475883
161,2017-08-23,77.10213470458984,-0.006210293867176198
162,2017-08-24,76.60140991210938,-0.006494305175841819
163,2017-08-25,77.83905029296875,0.016156887742398096
164,2017-08-28,77.33831024169922,-0.006433018509152677
165,2017-08-29,77.4705810546875,0.001710288375514013
166,2017-08-30,78.38700103759766,0.011829264353435676
167,2017-08-31,78.99166870117188,0.00771387673428392
168,2017-09-01,79.24673461914062,0.0032290230370202178
169,2017-09-05,78.65154266357422,-0.0075106180516698595
170,2017-09-06,78.27363586425781,-0.004804823739222419
171,2017-09-07,78.99166870117188,0.009173367622264061
172,2017-09-08,79.19004821777344,0.0025113979722599655
173,2017-09-11,80.41826629638672,0.015509752882529648
174,2017-09-12,80.49382781982422,0.0009396064714826124
175,2017-09-13,79.8324966430664,-0.008215924061135804
176,2017-09-14,80.18206787109375,0.00437880866472562
177,2017-09-15,80.03091430664062,-0.001885129287213294
178,2017-09-18,80.72057342529297,0.008617408967863227
179,2017-09-19,80.83394622802734,0.0014045093824723853
180,2017-09-20,81.36300659179688,0.0065450270394702414
181,2017-09-21,81.391357421875,0.0003484486533340547
182,2017-09-22,80.98509979248047,-0.004991409926839996
183,2017-09-25,81.96765899658203,0.012132592373403472
184,2017-09-26,81.95820617675781,-0.00011532377452205811
185,2017-09-27,81.75981140136719,-0.0024206822555724594
186,2017-09-28,82.26998138427734,0.006239862521278061
187,2017-09-29,81.54251861572266,-0.008842384018014515
188,2017-10-02,83.02580261230469,0.018190313737697528
189,2017-10-03,83.54540252685547,0.006258294388036045
190,2017-10-04,83.27142333984375,-0.0032794047155814132
191,2017-10-05,83.27142333984375,0.0
192,2017-10-06,83.68712615966797,0.004992142600080962
193,2017-10-09,83.57374572753906,-0.0013548133067992074
194,2017-10-10,83.58320617675781,0.00011319881783911079
195,2017-10-11,83.47927856445312,-0.0012434030358312587
196,2017-10-12,83.60209655761719,0.0014712392736988544
197,2017-10-13,83.93278503417969,0.003955504588746717
198,2017-10-16,84.0272445678711,0.001125418793775701
199,2017-10-17,84.0650405883789,0.0004498067347344925
200,2017-10-18,83.70602416992188,-0.004270698211102264
201,2017-10-19,83.74381256103516,0.00045144171507383035
202,2017-10-20,84.27287292480469,0.006317605415730787
203,2017-10-23,84.11227416992188,-0.0019056992993001787
204,2017-10-24,84.1972885131836,0.0010107245833108625
205,2017-10-25,83.60209655761719,-0.0070690157138874055
206,2017-10-26,84.0272445678711,0.0050853749817254545
207,2017-10-27,83.07303619384766,-0.011355940313533597
208,2017-10-30,81.68421936035156,-0.016718021841110375
209,2017-10-31,82.56613159179688,0.010796604758561035
210,2017-11-01,82.88854217529297,0.0039048769426437424
211,2017-11-02,82.12042999267578,-0.009266807721057257
212,2017-11-03,82.4428482055664,0.003926163232698343
213,2017-11-06,81.40922546386719,-0.012537445808785463
214,2017-11-07,81.28595733642578,-0.0015141788506035647
215,2017-11-08,81.2954330444336,0.00011657250918006845
216,2017-11-09,80.37564086914062,-0.011314192456422956
217,2017-11-10,80.51786041259766,0.0017694358877782257
218,2017-11-13,81.16267395019531,0.00800832926127737
219,2017-11-14,81.18164825439453,0.00023378116165639895
220,2017-11-15,81.05836486816406,-0.001518611519738311
221,2017-11-16,81.6557846069336,0.00737024167389988
222,2017-11-17,81.2195816040039,-0.0053419730767322315
223,2017-11-20,81.04888916015625,-0.002101616881996393
224,2017-11-21,82.06353759765625,0.01251896784785056
225,2017-11-22,81.40922546386719,-0.007973238212042988
226,2017-11-24,81.78854370117188,0.0046594011322838025
227,2017-11-27,82.253173828125,0.005680870522046799
228,2017-11-28,82.41442108154297,0.0019603772828864496
229,2017-11-29,83.0307846069336,0.0074788309776607775
230,2017-11-30,83.83683776855469,0.00970788323194749
231,2017-12-01,83.0687255859375,-0.0091619889664456
232,2017-12-04,83.50491333007812,0.005250926158598235
233,2017-12-05,84.39629364013672,0.010674585177223639
234,2017-12-06,83.60922241210938,-0.009325898023240131
235,2017-12-07,83.808349609375,0.0023816415405004676
236,2017-12-08,83.35318756103516,-0.005430986894042422
237,2017-12-11,82.7652816772461,-0.007053190177742974
238,2017-12-12,81.959228515625,-0.00973902517198455
239,2017-12-13,82.20576477050781,0.0030080353286368045
240,2017-12-14,81.90234375,-0.0036909944376147807
241,2017-12-15,82.48078155517578,0.0070625305539657734
242,2017-12-18,82.09198760986328,-0.0047137519550831675
243,2017-12-19,82.10147094726562,0.00011552086480604018
244,2017-12-20,81.86439514160156,-0.0028875951055290505
245,2017-12-21,81.32389068603516,-0.006602436317174165
246,2017-12-22,81.45664978027344,0.001632473472657825
247,2017-12-26,80.97301483154297,-0.005937329242425959
248,2017-12-27,81.1911392211914,0.0026937911364943723
249,2017-12-28,82.26266479492188,0.013197567912075714
250,2017-12-29,81.81697845458984,-0.005417844674046379
251,2018-01-02,82.50922393798828,0.008460902571495676
252,2018-01-03,82.67992401123047,0.002068860487288937
253,2018-01-04,81.56095123291016,-0.013533790599134066
254,2018-01-05,82.41442108154297,0.01046419684581168
255,2018-01-08,82.68939208984375,0.003336442878470569
256,2018-01-09,81.9212875366211,-0.009289033741935016
257,2018-01-10,81.2385482788086,-0.008334088468852419
258,2018-01-11,81.78854370117188,0.006770128639863371
259,2018-01-12,82.08250427246094,0.003594153386115906
260,2018-01-16,81.779052734375,-0.0036969088696255925
261,2018-01-17,82.34800720214844,0.006957215188361898
262,2018-01-18,82.72731018066406,0.004606097845021528
263,2018-01-19,84.02648162841797,0.015704263137731767
264,2018-01-22,82.93594360351562,-0.012978503964082733
265,2018-01-23,83.0687255859375,0.0016010185289101475
266,2018-01-24,83.63766479492188,0.006849018146977359
267,2018-01-25,84.80404663085938,0.013945652820382293
268,2018-01-26,84.529052734375,-0.0032426978123035743
269,2018-01-29,83.1919937133789,-0.01581774523367352
270,2018-01-30,83.45848083496094,0.0032032784609077325
271,2018-01-31,83.20147705078125,-0.003079420828278834
272,2018-02-01,82.64949035644531,-0.0066343376812774135
273,2018-02-02,81.65967559814453,-0.011976053984507073
274,2018-02-05,79.35646057128906,-0.028205047472755318
275,2018-02-06,79.7466812133789,0.004917314094915914
276,2018-02-07,79.80377960205078,0.0007159970522045978
277,2018-02-08,77.45295715332031,-0.029457532719040058
278,2018-02-09,78.19532012939453,0.00958469506341375
279,2018-02-12,78.6141128540039,0.0053557261984014115
280,2018-02-13,85.39051055908203,0.08619823412194116
281,2018-02-14,86.28514099121094,0.010476930355275416
282,2018-02-15,86.77055358886719,0.005625680065884042
283,2018-02-16,87.3987045288086,0.007239217844773549
284,2018-02-20,86.66584777832031,-0.008385212966706135
285,2018-02-21,85.80928802490234,-0.009883475156314603
286,2018-02-22,86.23756408691406,0.004991022205981244
287,2018-02-23,86.5992431640625,0.0041939853122929804
288,2018-02-26,86.39935302734375,-0.00230822036562206
289,2018-02-27,85.18111419677734,-0.014100092047921398
290,2018-02-28,85.10498809814453,-0.0008936969109955006
291,2018-03-01,84.70526123046875,-0.004696867676132088
292,2018-03-02,85.35243225097656,0.007640269460322813
293,2018-03-05,86.0376968383789,0.008028647448350856
294,2018-03-06,86.38983154296875,0.004092795571356556
295,2018-03-07,85.7902603149414,-0.006940298612911677
296,2018-03-08,85.60941314697266,-0.002108015144199893
297,2018-03-09,86.48501586914062,0.010227879037843168
298,2018-03-12,86.39935302734375,-0.000990493450639951
299,2018-03-13,86.13288879394531,-0.0030840998695222943
300,2018-03-14,85.72364044189453,-0.004751359878684913
301,2018-03-15,85.92349243164062,0.0023313521067920284
302,2018-03-16,85.79976654052734,-0.0014399541686659356
303,2018-03-19,85.61894226074219,-0.0021075148228957286
304,2018-03-20,85.44762420654297,-0.0020009363544516434
305,2018-03-21,85.26679229736328,-0.0021162894914735775
306,2018-03-22,83.71544647216797,-0.018194021182186382
307,2018-03-23,82.5828628540039,-0.013528968259646112
308,2018-03-26,83.95336151123047,0.016595436509017958
309,2018-03-27,83.82965850830078,-0.001473472898558592
310,2018-03-28,84.09613800048828,0.0031788211586369908
311,2018-03-29,85.4952163696289,0.016636654219870373
312,2018-04-02,83.6868896484375,-0.021151203517320916
313,2018-04-03,85.23822021484375,0.018537318962662752
314,2018-04-04,85.38098907470703,0.0016749394755477542
315,2018-04-05,86.0376968383789,0.007691498667194763
316,2018-04-06,84.2293930053711,-0.02101757600978904
317,2018-04-09,85.56182098388672,0.01581903811690366
318,2018-04-10,88.2457504272461,0.031368306710826355
319,2018-04-11,87.79842376708984,-0.005069101435372203
320,2018-04-12,88.22671508789062,0.004878120841177669
321,2018-04-13,88.2743148803711,0.000539516771457027
322,2018-04-16,89.75902557373047,0.016819283110511174
323,2018-04-17,91.4911880493164,0.019297919785939532
324,2018-04-18,90.99629974365234,-0.00540913629187223
325,2018-04-19,90.2253875732422,-0.008471906798209305
326,2018-04-20,89.88273620605469,-0.003797726741925689
327,2018-04-23,89.79708099365234,-0.0009529662315350684
328,2018-04-24,88.68355560302734,-0.012400463114204285
329,2018-04-25,88.65498352050781,-0.0003221801643523703
330,2018-04-26,88.77873229980469,0.001395846847890292
331,2018-04-27,88.95003509521484,0.0019295476627405606
332,2018-04-30,88.98812103271484,0.00042817225939528747
333,2018-05-01,89.02618408203125,0.00042773180144362044
334,2018-05-02,88.09347534179688,-0.010476791180614398
335,2018-05-03,86.72296142578125,-0.01555749629241121
336,2018-05-04,87.80794525146484,0.012510917614502182
337,2018-05-07,88.32188415527344,0.005852988614376109
338,2018-05-08,87.63424682617188,-0.007785582652343193
339,2018-05-09,88.78031158447266,0.013077818316554746
340,2018-05-10,89.572998046875,0.008928628974771202
341,2018-05-11,90.05049896240234,0.00533085780245357
342,2018-05-14,89.171875,-0.009757013814761684
343,2018-05-15,87.958984375,-0.013601717189416496
344,2018-05-16,89.33422088623047,0.015634974880648356
345,2018-05-17,89.09546661376953,-0.002672595899895991
346,2018-05-18,89.35333251953125,0.002894265169288257
347,2018-05-21,89.78308868408203,0.0048096265962642715
348,2018-05-22,89.73533630371094,-0.0005318638629053796
349,2018-05-23,89.85948944091797,0.0013835479123500694
350,2018-05-24,89.80219268798828,-0.0006376260680555079
351,2018-05-25,89.8499526977539,0.0005318356750103614
352,2018-05-29,89.11457061767578,-0.008184557231230571
353,2018-05-30,89.73533630371094,0.006965928037721225
354,2018-05-31,88.16907501220703,-0.01745423103116106
355,2018-06-01,88.59884643554688,0.004874400953853053
356,2018-06-04,89.63983917236328,0.011749506666248744
357,2018-06-05,89.6971435546875,0.0006392735959066531
358,2018-06-06,89.68759155273438,-0.00010649170725596235
359,2018-06-07,89.0477066040039,-0.0071345984171536925
360,2018-06-08,89.4488296508789,0.004504585936826011
361,2018-06-11,89.60163879394531,0.0017083414468677116
362,2018-06-12,89.91680145263672,0.0035173760539823906
363,2018-06-13,90.0791473388672,0.0018055122469631257
364,2018-06-14,90.59487915039062,0.00572531853108349
365,2018-06-15,90.65218353271484,0.0006325344529582999
366,2018-06-18,90.57577514648438,-0.000842874195114085
367,2018-06-19,90.01228332519531,-0.006221219971650815
368,2018-06-20,90.38477325439452,0.004138212202144498
369,2018-06-21,88.91401672363281,-0.016272171493113663
370,2018-06-22,88.46514129638672,-0.005048421427650829
371,2018-06-25,88.03536987304688,-0.004858087796412058
372,2018-06-26,88.54154968261719,0.005749732298509835
373,2018-06-27,87.958984375,-0.006579569814459174
374,2018-06-28,88.54154968261719,0.0066231472743421005
375,2018-06-29,89.18140411376953,0.007226600770439795
376,2018-07-02,89.38197326660156,0.0022490019620700075
377,2018-07-03,89.76399230957031,0.0042740054734446975
378,2018-07-05,90.28926849365234,0.005851747126737639
379,2018-07-06,89.8499526977539,-0.004865647969330089
380,2018-07-09,90.82408905029295,0.010841812636406711
381,2018-07-10,91.78868865966795,0.010620526112195439
382,2018-07-11,91.37799835205078,-0.004474301938661718
383,2018-07-12,91.43529510498048,0.0006270300724793287
384,2018-07-13,90.60443878173828,-0.009086822788598847
385,2018-07-16,89.09546661376953,-0.016654505985118306
386,2018-07-17,90.38477325439452,0.014471068951399602
387,2018-07-18,90.36566925048828,-0.0002113630782971665
388,2018-07-19,91.99878692626952,0.018072324250201
389,2018-07-20,91.4735107421875,-0.005709599024419587
390,2018-07-23,90.8622817993164,-0.006682032185184261
391,2018-07-24,90.48982238769533,-0.004099164188323123
392,2018-07-25,90.47071838378906,-0.0002111177080712512
393,2018-07-26,91.75047302246094,0.014145512067705424
394,2018-07-27,98.27336883544922,0.07109386576559062
395,2018-07-30,97.891357421875,-0.0038872323000737063
396,2018-07-31,98.15007781982422,0.0026429340113676147
397,2018-08-01,98.15007781982422,0.0
398,2018-08-02,98.6771011352539,0.00536956594570559
399,2018-08-03,99.75031280517578,0.010875995115126491
400,2018-08-06,99.85569763183594,0.0010564861773014744
401,2018-08-07,99.22329711914062,-0.0063331440037297515
402,2018-08-08,98.6579360961914,-0.005697865716660977
403,2018-08-09,99.55867004394533,0.009129868142342845
404,2018-08-10,98.10215759277344,-0.014629689714908634
405,2018-08-13,97.16311645507812,-0.009572074261539831
406,2018-08-14,97.71887969970705,0.005719899329143852
407,2018-08-15,97.10562896728516,-0.006275662740981347
408,2018-08-16,97.4218521118164,0.003256486239719303
409,2018-08-17,98.46629333496094,0.01072081058308938
410,2018-08-20,98.56211853027344,0.000973177643506018
411,2018-08-21,98.9741439819336,0.004180363184194347
412,2018-08-22,98.86873626708984,-0.0010650025410978703
413,2018-08-23,98.61003112792967,-0.002616652633864902
414,2018-08-24,99.4628448486328,0.008648346531771711
415,2018-08-27,100.17191314697266,0.00712897664870682
416,2018-08-28,99.549072265625,-0.006217719735808758
417,2018-08-29,100.32523345947266,0.00779676973559984
418,2018-08-30,100.32523345947266,0.0
419,2018-08-31,100.33482360839844,9.55905966533166e-05
420,2018-09-04,101.93504333496094,0.015948796928253683
421,2018-09-05,103.65982818603516,0.01692043084149719
422,2018-09-06,104.39765167236328,0.00711773788592418
423,2018-09-07,103.39152526855467,-0.00963744287051771
424,2018-09-10,104.02394104003906,0.006116708016848715
425,2018-09-11,103.98561096191406,-0.00036847362003178397
426,2018-09-12,104.81925201416016,0.008016888534235989
427,2018-09-13,106.18950653076172,0.013072546219051961
428,2018-09-14,107.29146575927734,0.010377289287020197
429,2018-09-17,106.6494598388672,-0.005983755705701421
430,2018-09-18,106.92732238769533,0.0026053816798317087
431,2018-09-19,106.48656463623048,-0.0041220311293941325
432,2018-09-20,105.873291015625,-0.00575916429176293
433,2018-09-21,105.71041107177734,-0.0015384422481361515
434,2018-09-24,105.76790618896484,0.0005438926649188325
435,2018-09-25,104.21558380126952,-0.014676686375184045
436,2018-09-26,104.06227111816406,-0.001471110917516949
437,2018-09-27,103.81312561035156,-0.0023941963320173176
438,2018-09-28,103.23820495605467,-0.00553803433734168
439,2018-10-01,103.26695251464844,0.00027845852808083826
440,2018-10-02,103.63107299804688,0.0035260117058919516
441,2018-10-03,103.48733520507812,-0.0013870144234775506
442,2018-10-04,102.61537170410156,-0.008425799149708646
443,2018-10-05,102.6920166015625,0.0007469143870759698
444,2018-10-08,103.17112731933594,0.004665510851075805
445,2018-10-09,101.30260467529295,-0.01811090653550307
446,2018-10-10,98.1405029296875,-0.03121441700083616
447,2018-10-11,97.32601165771484,-0.008299236784594433
448,2018-10-12,97.40267181396484,0.0007876635952124289
449,2018-10-15,97.88177490234376,0.004918787949615977
450,2018-10-16,101.18763732910156,0.033774034339447256
451,2018-10-17,100.63185119628906,-0.00549262881793422
452,2018-10-18,99.91319274902344,-0.007141461065481525
453,2018-10-19,99.96110534667967,0.00047954225401025674
454,2018-10-22,99.625732421875,-0.0033550341769585934
455,2018-10-23,99.3478546142578,-0.0027892172118795244
456,2018-10-24,95.89827728271484,-0.034722212622877224
457,2018-10-25,97.0577163696289,0.012090301512882817
458,2018-10-26,96.16657257080078,-0.00918158629896404
459,2018-10-29,95.97494506835938,-0.001992662287099045
460,2018-10-30,97.46521759033205,0.01552772466721608
461,2018-10-31,98.03250122070312,0.00582037001913327
462,2018-11-01,99.20549774169922,0.011965383993980616
463,2018-11-02,99.8016357421875,0.006009122619801133
464,2018-11-05,97.95555877685548,-0.018497462006543564
465,2018-11-06,100.09008026123048,0.021790713166544018
466,2018-11-07,101.0611572265625,0.009702030039316023
467,2018-11-08,101.08039093017578,0.00019031746856179588
468,2018-11-09,100.27274322509766,-0.007990152171414078
469,2018-11-12,97.84979248046876,-0.024163602856558164
470,2018-11-13,98.43630981445312,0.005994058026248972
471,2018-11-14,98.14787292480467,-0.0029301879580018175
472,2018-11-15,100.75348663330078,0.026547836757423893
473,2018-11-16,102.18608856201172,0.014218881912493986
474,2018-11-19,101.1284637451172,-0.010349988259436116
475,2018-11-20,100.2919692993164,-0.00827160242351832
476,2018-11-21,99.51317596435548,-0.007765261170978199
477,2018-11-23,99.89777374267578,0.0038647925221284574
478,2018-11-26,99.6958465576172,-0.002021338188964217
479,2018-11-27,98.35941314697266,-0.01340510619840296
480,2018-11-28,100.02277374267578,0.01691104636032814
481,2018-11-29,99.84969329833984,-0.0017304103641557766
482,2018-11-30,100.0419921875,0.001925883623754343
483,2018-12-03,100.43618774414062,0.003940300947844255
484,2018-12-04,98.97474670410156,-0.014550940979182303
485,2018-12-06,97.71519470214844,-0.012725993689266302
486,2018-12-07,95.9268569946289,-0.018301531435010454
487,2018-12-10,95.29227447509766,-0.006615274798034698
488,2018-12-11,94.86923217773438,-0.004439418617023683
489,2018-12-12,96.08069610595705,0.012769829589777126
490,2018-12-13,96.4556655883789,0.0039026516003626277
491,2018-12-14,96.4748992919922,0.0001994046020621365
492,2018-12-17,94.84039306640624,-0.01694229522478119
493,2018-12-18,94.16732788085938,-0.0070968198653034165
494,2018-12-19,91.9078598022461,-0.023994182796308716
495,2018-12-20,91.35021209716795,-0.006067464809625722
496,2018-12-21,89.94644927978516,-0.015366826033087255
497,2018-12-24,86.2447509765625,-0.04115446838494141
498,2018-12-26,88.23502349853516,0.023077027870525457
499,2018-12-27,88.81190490722656,0.006538009350685714
500,2018-12-28,89.12918090820312,0.0035724490011557197
501,2018-12-31,90.4464111328125,0.014778888476110197
502,2019-01-02,86.70626068115234,-0.04135211563196328
503,2019-01-03,85.65824127197266,-0.012087009645515678
504,2019-01-04,87.56197357177734,0.0222247418524526
505,2019-01-07,88.40807342529297,0.009662868697472238
506,2019-01-08,89.91761779785156,0.017074734400068126
507,2019-01-09,89.87914276123047,-0.0004278920812559317
508,2019-01-10,90.93677520751952,0.011767273405118184
509,2019-01-11,91.08099365234376,0.0015859199371777155
510,2019-01-14,90.34066009521484,-0.008128299082405421
511,2019-01-15,91.15792083740234,0.00904643314899567
512,2019-01-16,91.06175994873048,-0.0010548824258879153
513,2019-01-17,92.23477172851562,0.012881496914243451
514,2019-01-18,93.92698669433594,0.018346822289550202
515,2019-01-22,92.7251205444336,-0.012795749040832582
516,2019-01-23,93.62892150878906,0.009747099373382584
517,2019-01-24,93.3885498046875,-0.002567280496539759
518,2019-01-25,93.63853454589844,0.0026768243187602625
519,2019-01-28,94.1096649169922,0.0050313727503161765
520,2019-01-29,94.49557495117188,0.004100641889651424
521,2019-01-30,94.51488494873048,0.00020434816729331118
522,2019-01-31,95.63410186767578,0.011841700061872906
523,2019-02-01,96.04898071289062,0.004338189381324353
524,2019-02-04,96.33841705322266,0.0030134243818495943
525,2019-02-05,97.51551055908205,0.012218318941332518
526,2019-02-06,98.01721954345705,0.005144914706374015
527,2019-02-07,98.36457061767578,0.003543776040950908
528,2019-02-08,97.82425689697266,-0.00549297086654521
529,2019-02-11,98.12335205078124,0.0030574743248352743
530,2019-02-12,98.7215576171875,0.006096464846580885
531,2019-02-13,99.18467712402344,0.0046911689606010665
532,2019-02-14,98.1908721923828,-0.01001974256969107
533,2019-02-15,98.35492706298828,0.0016707751641522606
534,2019-02-19,97.97863006591795,-0.003825908963659086
535,2019-02-20,98.66366577148438,0.0069916848715434465
536,2019-02-21,99.49341583251952,0.0084098847792351
537,2019-02-22,98.4610366821289,-0.010376356483010385
538,2019-02-25,97.98828125,-0.0048014468266787125
539,2019-02-26,97.7470703125,-0.002461630456448094
540,2019-02-27,97.84355926513672,0.0009871288451739346
541,2019-02-28,98.15230560302734,0.003155510083744817
542,2019-03-01,97.2646484375,-0.009043671058705738
543,2019-03-04,98.03652954101562,0.007935885400455867
544,2019-03-05,97.90145111083984,-0.0013778377387305696
545,2019-03-06,96.9559097290039,-0.009658093635051768
546,2019-03-07,96.36737060546876,-0.0060701727742036304
547,2019-03-08,96.9366226196289,0.005907103312911666
548,2019-03-11,98.4320831298828,0.015427198409025955
549,2019-03-12,98.66366577148438,0.0023527150319069268
550,2019-03-13,98.68295288085938,0.00019548340540742615
551,2019-03-14,99.27149963378906,0.005964016435951569
552,2019-03-15,99.4258804321289,0.001555137163328446
553,2019-03-18,100.06266784667967,0.006404644462620235
554,2019-03-19,99.95653533935548,-0.0010606603802210124
555,2019-03-20,100.29421997070312,0.0033783146864903024
556,2019-03-21,101.82830047607422,0.015295801750282445
557,2019-03-22,100.17845153808594,-0.016202263322424137
558,2019-03-25,100.8345184326172,0.006548982185873076
559,2019-03-26,101.7318344116211,0.008898896855480398
560,2019-03-27,101.80900573730467,0.0007585759770274425
561,2019-03-28,102.4554443359375,0.006349522755391801
562,2019-03-29,102.6484146118164,0.001883455556018987
563,2019-04-01,103.9219970703125,0.012407229700647449
564,2019-04-02,103.44922637939452,-0.004549284119300667
565,2019-04-03,103.69043731689452,0.0023316843048721836
566,2019-04-04,104.29826354980467,0.005861931424327338
567,2019-04-05,104.915771484375,0.005920596504230824
568,2019-04-08,105.156982421875,0.0022990913004525826
569,2019-04-09,104.35617065429688,-0.007615393187733188
570,2019-04-10,105.2052230834961,0.00813610181243507
571,2019-04-11,105.80341339111328,0.00568593735258216
572,2019-04-12,106.4305419921875,0.0059273002729691715
573,2019-04-15,106.02532196044922,-0.0038073660450590463
574,2019-04-16,105.76483154296876,-0.0024568698558409263
575,2019-04-17,103.91234588623048,-0.01751513834715157
576,2019-04-18,104.4044189453125,0.004735462902750509
577,2019-04-22,105.09908294677734,0.006653588118992415
578,2019-04-23,106.1893310546875,0.010373526365232477
579,2019-04-24,106.07357025146484,-0.001090135911705148
580,2019-04-25,105.6007843017578,-0.004457151282701521
581,2019-04-26,107.50150299072266,0.01799909632804897
582,2019-04-29,107.40503692626952,-0.0008973461930245064
583,2019-04-30,107.67606353759766,0.0025234069004993476
584,2019-05-01,109.19576263427734,0.014113620490491252
585,2019-05-02,109.37967681884766,0.001684261184990099
586,2019-05-03,110.20243072509766,0.007521999791721967
587,2019-05-06,111.33496856689452,0.010276886220613513
588,2019-05-07,110.318603515625,-0.009128893323923193
589,2019-05-08,110.33795928955078,0.00017545339869218246
590,2019-05-09,109.37967681884766,-0.008684975477826096
591,2019-05-10,109.96045684814452,0.0053097617965971455
592,2019-05-13,109.18608856201172,-0.007042243260249492
593,2019-05-14,109.36031341552734,0.0015956689703806592
594,2019-05-15,109.61197662353516,0.0023012297619484645
595,2019-05-16,110.45410919189452,0.007682851767664811
596,2019-05-17,110.13467407226562,-0.002892016620893001
597,2019-05-20,109.41839599609376,-0.00650365638438144
598,2019-05-21,109.8442840576172,0.0038922893874138165
599,2019-05-22,109.5248794555664,-0.002907794472794434
600,2019-05-23,109.34095764160156,-0.001679269722816401
601,2019-05-24,109.31192779541016,-0.0002654983714936998
602,2019-05-28,109.28287506103516,-0.0002657782637350836
603,2019-05-29,109.08927154541016,-0.0017715814624832404
604,2019-05-30,109.8733367919922,0.007187372648791213
605,2019-05-31,109.6410140991211,-0.002114459246021938
606,2019-06-03,110.37667083740234,0.006709685643879304
607,2019-06-04,112.01251983642578,0.014820604631509804
608,2019-06-05,113.37736511230467,0.012184756470723146
609,2019-06-06,116.3780288696289,0.026466162398040893
610,2019-06-07,118.01388549804688,0.014056404325687
611,2019-06-10,119.27224731445312,0.010662828455275886
612,2019-06-11,118.65274810791016,-0.0051939929069140245
613,2019-06-12,117.72350311279295,-0.007831634833034729
614,2019-06-13,116.85233306884766,-0.007400136938760737
615,2019-06-14,116.24252319335938,-0.0052186367141594525
616,2019-06-17,116.31995391845705,0.0006661135957009012
617,2019-06-18,115.6617431640625,-0.005658622895053478
618,2019-06-19,115.58432006835938,-0.0006693924333589507
619,2019-06-20,115.97149658203124,0.0033497321560820303
620,2019-06-21,115.55526733398438,-0.0035890650747311126
621,2019-06-24,114.97449493408205,-0.00502592753494957
622,2019-06-25,117.18143463134766,0.019195037112630153
623,2019-06-26,115.41974639892578,-0.015033851035909707
624,2019-06-27,117.65575408935548,0.019372834893445212
625,2019-06-28,120.35635375976562,0.02295340071815888
626,2019-07-01,120.28860473632812,-0.0005629035885610367
627,2019-07-02,119.5819854736328,-0.005874365774249601
628,2019-07-03,121.88573455810548,0.019265017848199673
629,2019-07-05,120.6176986694336,-0.010403480713055746
630,2019-07-08,120.0175552368164,-0.004975583510857251
631,2019-07-09,120.0950164794922,0.0006454159353850297
632,2019-07-10,119.6207046508789,-0.003949471364569801
633,2019-07-11,120.0466079711914,0.0035604481812370192
634,2019-07-12,119.45616149902344,-0.004918476932806448
635,2019-07-15,118.98185729980467,-0.003970529383054422
636,2019-07-16,119.21416473388672,0.001952460983162263
637,2019-07-17,119.5723114013672,0.0030042291390453
638,2019-07-18,120.375732421875,0.006719122605324257
639,2019-07-19,119.44647979736328,-0.007719601001097254
640,2019-07-22,119.21416473388672,-0.001944930180200144
641,2019-07-23,120.52090454101562,0.01096127972750427
642,2019-07-24,119.33999633789062,-0.009798368238458699
643,2019-07-25,118.98185729980467,-0.0030009975622250495
644,2019-07-26,120.50155639648438,0.012772527939704625
645,2019-07-29,120.93714141845705,0.0036147667714721
646,2019-07-30,120.18965911865234,-0.006180750520787703
647,2019-07-31,117.48121643066406,-0.022534739742580356
648,2019-08-01,114.1224136352539,-0.02859012612788603
649,2019-08-02,114.56895446777344,0.00391282324212594
650,2019-08-05,113.65644073486328,-0.00796475569799171
651,2019-08-06,116.21924591064452,0.022548701676834426
652,2019-08-07,118.10253143310548,0.01620459251567441
653,2019-08-08,119.27715301513672,0.009945778196096988
654,2019-08-09,117.53948974609376,-0.0145682825680995
655,2019-08-12,116.51049041748048,-0.008754498856819115
656,2019-08-13,117.6753921508789,0.009998256201860789
657,2019-08-14,115.60767364501952,-0.017571375527758892
658,2019-08-15,114.86990356445312,-0.006381670500798742
659,2019-08-16,116.7337646484375,0.01622584355125345
660,2019-08-19,116.7046356201172,-0.00024953387229498247
661,2019-08-20,115.40380096435548,-0.011146383764874979
662,2019-08-21,115.84064483642578,0.0037853508153100623
663,2019-08-22,117.0152816772461,0.010140109652177598
664,2019-08-23,116.74346160888672,-0.0023229450415640507
665,2019-08-26,117.45211791992188,0.006070201288096877
666,2019-08-27,117.94720458984376,0.004215221306264061
667,2019-08-28,118.29666900634766,0.0029628885035397623
668,2019-08-29,118.13165283203124,-0.001394935087373983
669,2019-08-30,118.64615631103516,0.004355339713526973
670,2019-09-03,116.15129852294922,-0.021027716916050654
671,2019-09-04,118.37433624267578,0.019139155119194173
672,2019-09-05,117.65596771240234,-0.006068617177297009
673,2019-09-06,117.34532165527344,-0.0026402915480517875
674,2019-09-09,115.61737823486328,-0.014725285985293546
675,2019-09-10,115.62708282470705,8.393712080256854e-05
676,2019-09-11,115.16111755371094,-0.004029897318282405
677,2019-09-12,114.59809112548828,-0.0048890323416673764
678,2019-09-13,114.9378433227539,0.00296472824223204
679,2019-09-16,113.0739974975586,-0.016216119698378995
680,2019-09-17,113.58849334716795,0.004550081017702379
681,2019-09-18,114.84076690673828,0.01102465155289023
682,2019-09-19,114.4039306640625,-0.0038038429596219947
683,2019-09-20,114.59809112548828,0.0016971485184011925
684,2019-09-23,114.6466293334961,0.00042355162752816256
685,2019-09-24,115.0446319580078,0.0034715597556205235
686,2019-09-25,115.63680267333984,0.005147312875477761
687,2019-09-26,115.4426498413086,-0.0016789882420020774
688,2019-09-27,115.19996643066406,-0.002102198892507512
689,2019-09-30,114.98638916015624,-0.0018539699022948053
690,2019-10-01,114.22919464111328,-0.00658507954353027
691,2019-10-02,111.97704315185548,-0.019716076055106946
692,2019-10-03,111.6275634765625,-0.0031209939596194003
693,2019-10-04,113.89913940429688,0.020349596972178974
694,2019-10-07,113.15164947509766,-0.006562735531705166
695,2019-10-08,111.4237060546875,-0.015271040487928933
696,2019-10-09,113.0739974975586,0.014810954520406261
697,2019-10-10,112.9089584350586,-0.0014595668867509737
698,2019-10-11,112.92839050292967,0.000172103862620121
699,2019-10-14,112.46240997314452,-0.0041263364129241475
700,2019-10-15,111.81201934814452,-0.005783182355378225
701,2019-10-16,112.09352111816406,0.0025176342548920427
702,2019-10-17,113.14195251464844,0.009353184608940746
703,2019-10-18,114.3359832763672,0.010553386565997025
704,2019-10-21,114.45246887207033,0.0010188008391160963
705,2019-10-22,113.2487335205078,-0.010517338449972713
706,2019-10-23,113.93797302246094,0.006086068078000384
707,2019-10-24,113.90885162353516,-0.00025558993330554447
708,2019-10-25,114.43305206298828,0.004601928928101184
709,2019-10-28,114.7436981201172,0.0027146532538337986
710,2019-10-29,115.39608764648438,0.005685624021671609
711,2019-10-30,116.11666107177734,0.006244348833562174
712,2019-10-31,115.0455551147461,-0.009224395079437842
713,2019-11-01,107.87894439697266,-0.06229367758385351
714,2019-11-04,105.81465911865234,-0.019135200940826436
715,2019-11-05,105.8049087524414,-9.214570355520202e-05
716,2019-11-06,106.61309051513672,0.007638414627682888
717,2019-11-07,106.52545928955078,-0.0008219555887791774
718,2019-11-08,106.13597869873048,-0.0036562207139763103
719,2019-11-11,105.7270050048828,-0.003853299313407832
720,2019-11-12,105.37646484375,-0.0033155215275095795
721,2019-11-13,106.73968505859376,0.0129366668056774
722,2019-11-14,107.5673370361328,0.007753929357058764
723,2019-11-15,107.0707550048828,-0.00461647601337567
724,2019-11-18,107.44076538085938,0.003455755737966859
725,2019-11-19,107.5965576171875,0.0014500290999963639
726,2019-11-20,107.7913055419922,0.0018099828574218435
727,2019-11-21,108.37554168701172,0.005420067435697895
728,2019-11-22,107.22654724121094,-0.010601971883278605
729,2019-11-25,108.03472900390624,0.007537142466009339
730,2019-11-26,109.60244750976562,0.014511245784702309
731,2019-11-27,109.86534118652344,0.0023986113698271083
732,2019-11-29,109.17400360107422,-0.006292590347264371
733,2019-12-02,109.06688690185548,-0.0009811557301694362
734,2019-12-03,109.74849700927734,0.006249468805644032
735,2019-12-04,108.84292602539062,-0.008251329253376238
736,2019-12-05,109.00845336914062,0.0015207910132017943
737,2019-12-06,109.13504791259766,0.0011613277644471065
738,2019-12-09,109.67059326171876,0.004907180226374264
739,2019-12-10,108.99872589111328,-0.006126230839311075
740,2019-12-11,109.61216735839844,0.0056279691553271505
741,2019-12-12,111.17987060546876,0.014302273961470213
742,2019-12-13,110.9753875732422,-0.0018392091222356743
743,2019-12-16,111.3161849975586,0.003070927993754191
744,2019-12-17,110.37166595458984,-0.00848501089926379
745,2019-12-18,110.10877227783205,-0.0023818946147461384
746,2019-12-19,110.28404235839844,0.0015917903445890058
747,2019-12-20,111.93936920166016,0.015009667834647189
748,2019-12-23,112.3386001586914,0.00356649282445054
749,2019-12-24,111.71541595458984,-0.0055473737719825555
750,2019-12-26,111.80304718017578,0.0007844147993107953
751,2019-12-27,111.99778747558594,0.0017418156331314716
752,2019-12-30,112.71834564208984,0.0064336821534174415
753,2019-12-31,112.58202362060548,-0.0012094040300877351
754,2020-01-02,110.69300079345705,-0.016779080410868508
755,2020-01-03,111.04354095458984,0.00316677801324472
756,2020-01-06,111.05328369140624,8.773798757344409e-05
757,2020-01-07,109.94322967529295,-0.009995688368818367
758,2020-01-08,110.24510192871094,0.002745710257098466
759,2020-01-09,111.64725494384766,0.01271850622482451
760,2020-01-10,112.74757385253906,0.009855315379180718
761,2020-01-13,113.14678192138672,0.0035407242498164404
762,2020-01-14,113.07862091064452,-0.0006024122788534925
763,2020-01-15,113.64338684082033,0.004994453643205388
764,2020-01-16,115.11371612548828,0.012938098076286986
765,2020-01-17,114.23735809326172,-0.007612976643645353
766,2020-01-21,112.59176635742188,-0.01440502269403332
767,2020-01-22,112.6307144165039,0.0003459228000597392
768,2020-01-23,114.28604888916016,0.014697007661115258
769,2020-01-24,114.04261016845705,-0.0021300825697387893
770,2020-01-27,113.42916870117188,-0.005379054954801843
771,2020-01-28,113.27289581298828,-0.0013777134221559795
772,2020-01-29,113.24358367919922,-0.0002587744718511864
773,2020-01-30,113.8296356201172,0.005175144779753449
774,2020-01-31,112.82359313964844,-0.00883814197408328
775,2020-02-03,114.51335144042967,0.014976994206253647
776,2020-02-04,114.23009490966795,-0.002473567729864845
777,2020-02-05,115.1287078857422,0.007866692020039645
778,2020-02-06,114.7966079711914,-0.0028845969059287935
779,2020-02-07,113.98589324951172,-0.007062183595905047
780,2020-02-10,113.10684204101562,-0.007711929813734697
781,2020-02-11,113.35103607177734,0.002158967807386558
782,2020-02-12,112.0421905517578,-0.011546833318671568
783,2020-02-13,113.4975357055664,0.012989260087130416
784,2020-02-14,113.95660400390624,0.004044742429745174
785,2020-02-18,112.57939910888672,-0.012085345180805063
786,2020-02-19,112.33521270751952,-0.002169014964549798
787,2020-02-20,112.257080078125,-0.00069553105843978
788,2020-02-21,109.37567901611328,-0.02566787823098926
789,2020-02-24,106.67010498046876,-0.024736523329340288
790,2020-02-25,104.45291137695312,-0.020785520028517857
791,2020-02-26,102.24547576904295,-0.02113330857714346
792,2020-02-27,100.01847839355467,-0.021780889166369888
793,2020-02-28,98.71941375732422,-0.01298824634302942
794,2020-03-02,101.17105102539062,0.024834398572231242
795,2020-03-03,100.37010955810548,-0.007916706005991148
796,2020-03-04,104.94127655029295,0.045543110516793606
797,2020-03-05,101.5617446899414,-0.03220402849523096
798,2020-03-06,104.80452728271484,0.03192917375211857
799,2020-03-09,99.09056854248048,-0.05452015183295189
800,2020-03-10,101.57150268554688,0.025037036113107147
801,2020-03-11,96.77569580078124,-0.047216067085399716
802,2020-03-12,92.20453643798828,-0.04723458018016191
803,2020-03-13,94.14826202392578,0.021080585197071455
804,2020-03-16,85.83617401123047,-0.08828721671551376
805,2020-03-17,94.20686340332033,0.09751936742887302
806,2020-03-18,94.49988555908205,0.003110411971867011
807,2020-03-19,96.58035278320312,0.022015552842340247
808,2020-03-20,90.35850524902344,-0.06442146207672339
809,2020-03-23,81.97803497314453,-0.09274688921405638
810,2020-03-24,86.0119857788086,0.0492077030998066
811,2020-03-25,88.08267974853516,0.024074481608314713
812,2020-03-26,93.96267700195312,0.06675543103598369
813,2020-03-27,91.8138427734375,-0.02286901881766268
814,2020-03-30,98.14315032958984,0.0689363103096634
815,2020-03-31,97.22500610351562,-0.009355153395737337
816,2020-04-01,93.97245025634766,-0.03345390221631839
817,2020-04-02,93.91383361816406,-0.0006237640715304194
818,2020-04-03,91.99942779541016,-0.02038470530909764
819,2020-04-06,98.41664123535156,0.06975275383464452
820,2020-04-07,98.76825714111328,0.0035727281621089624
821,2020-04-08,101.68871307373048,0.029568770545830958
822,2020-04-09,104.77523803710938,0.030352679959092077
823,2020-04-13,99.96965026855467,-0.04586568218392073
824,2020-04-14,101.60081481933594,0.016316597551350398
825,2020-04-15,98.58267974853516,-0.0297058156095259
826,2020-04-16,99.48126983642578,0.009115090908288881
827,2020-04-17,100.54592895507812,0.010702106239726561
828,2020-04-20,104.45291137695312,0.03885768884407592
829,2020-04-21,103.65196990966795,-0.007667966902279111
830,2020-04-22,103.82779693603516,0.0016963211265588196
831,2020-04-23,102.57754516601562,-0.012041590083913367
832,2020-04-24,101.698486328125,-0.008569700478481157
833,2020-04-27,109.96172332763672,0.08125231060815197
834,2020-04-28,108.94265747070312,-0.009267459858711358
835,2020-04-29,107.86479949951172,-0.009893810158626448
836,2020-04-30,104.92516326904295,-0.027252970794073295
837,2020-05-01,104.00407409667967,-0.008778534563739337
838,2020-05-04,104.66059112548828,0.006312416455900749
839,2020-05-05,103.43575286865234,-0.01170295565565227
840,2020-05-06,102.74983215332033,-0.0066313696793316446
841,2020-05-07,103.34756469726562,0.005817357862476946
842,2020-05-08,105.36610412597656,0.019531562592924212
843,2020-05-11,104.17066955566406,-0.011345532609644882
844,2020-05-12,101.858154296875,-0.022199293415824273
845,2020-05-13,100.35894775390624,-0.01471857165798618
846,2020-05-14,100.39813232421876,0.0003904442123945362
847,2020-05-15,99.45746612548828,-0.009369359538410116
848,2020-05-18,102.05412292480467,0.026108213897588328
849,2020-05-19,101.642578125,-0.004032613166524479
850,2020-05-20,102.30890655517578,0.006555603394438947
851,2020-05-21,102.97520446777344,0.0065126090682858795
852,2020-05-22,102.9850082397461,9.520517121885952e-05
853,2020-05-26,107.34546661376952,0.042340710056287145
854,2020-05-27,110.28510284423828,0.027384819528947668
855,2020-05-28,109.3542022705078,-0.008440855108465928
856,2020-05-29,109.14842987060548,-0.001881705463803729
857,2020-06-01,109.17782592773438,0.00026932185065553504
858,2020-06-02,109.81475067138672,0.005833828785654083
859,2020-06-03,111.00039672851562,0.010796783217920103
860,2020-06-04,109.88333892822266,-0.01006354781798724
861,2020-06-05,111.11798858642578,0.011236004204510097
862,2020-06-08,111.29436492919922,0.0015872888361028181
863,2020-06-09,110.20671081542967,-0.00977276894891732
864,2020-06-10,109.39339447021484,-0.007379916696515387
865,2020-06-11,102.15211486816406,-0.06619485241425982
866,2020-06-12,103.23977661132812,0.010647471611995307
867,2020-06-15,103.28878021240234,0.0004746581471084532
868,2020-06-16,105.22891998291016,0.018783644908170194
869,2020-06-17,104.75858306884766,-0.004469654484136942
870,2020-06-18,104.83696746826172,0.0007482384461285907
871,2020-06-19,105.4346923828125,0.0057014708550371385
872,2020-06-22,105.3856964111328,-0.00046470445896318324
873,2020-06-23,105.27792358398438,-0.001022651373180472
874,2020-06-24,103.80811309814452,-0.013961241215660336
875,2020-06-25,105.4346923828125,0.015669095951393874
876,2020-06-26,105.55229949951172,0.0011154498964365267
877,2020-06-29,107.05149841308594,0.014203375205304347
878,2020-06-30,109.72655487060548,0.024988500835337657
879,2020-07-01,110.21649932861328,0.004465140262405631
880,2020-07-02,112.6563949584961,0.022137299267763977
881,2020-07-06,112.9405517578125,0.002522331727560445
882,2020-07-07,112.83277893066406,-0.0009542438519296592
883,2020-07-08,110.65744018554688,-0.019279315512152118
884,2020-07-09,111.4707489013672,0.007349787908129679
885,2020-07-10,112.63677978515624,0.010460420292150108
886,2020-07-13,111.14738464355467,-0.013222991144122176
887,2020-07-14,113.96941375732422,0.025389973167786906
888,2020-07-15,115.52743530273438,0.013670523468056528
889,2020-07-16,114.88070678710938,-0.005598051354037903
890,2020-07-17,116.99723815917967,0.018423732158895367
891,2020-07-20,116.88946533203124,-0.0009211570191238749
892,2020-07-21,115.80179595947266,-0.009305110340516953
893,2020-07-22,116.1153564453125,0.0027077342215795497
894,2020-07-23,116.05656433105467,-0.0005063250551663456
895,2020-07-24,116.45831298828124,0.0034616625051950844
896,2020-07-27,117.43819427490234,0.008414008940003326
897,2020-07-28,116.02291870117188,-0.012051237525140701
898,2020-07-29,116.76986694335938,0.006437937008905381
899,2020-07-30,115.88531494140624,-0.007575173502443078
900,2020-07-31,113.22185516357422,-0.022983583201881208
901,2020-08-03,116.62245178222656,0.030034807447196776
902,2020-08-04,116.5831298828125,-0.0003371726353986748
903,2020-08-05,116.3275909423828,-0.002191903242660942
904,2020-08-06,115.63961791992188,-0.00591410014500926
905,2020-08-07,117.20231628417967,0.013513520646011967
906,2020-08-10,114.99095153808594,-0.018867926984752148
907,2020-08-11,114.73541259765624,-0.002222252594762386
908,2020-08-12,116.06221771240234,0.01156404186559934
909,2020-08-13,116.48484802246094,0.003641411635833647
910,2020-08-14,116.4553680419922,-0.0002530799582023402
911,2020-08-17,116.219482421875,-0.002025545271834517
912,2020-08-18,115.8558349609375,-0.0031289716092304243
913,2020-08-19,115.66910552978516,-0.001611739548683988
914,2020-08-20,115.53150939941406,-0.0011895668228856238
915,2020-08-21,115.77720642089844,0.002126666766163021
916,2020-08-24,117.06471252441406,0.011120549055528173
917,2020-08-25,116.10153198242188,-0.008227761562147218
918,2020-08-26,116.5634765625,0.003978798317218368
919,2020-08-27,117.98856353759766,0.012225844811119213
920,2020-08-28,116.10153198242188,-0.015993342902038687
921,2020-08-31,116.35706329345705,0.002200929709298416
922,2020-09-01,117.44801330566406,0.009375881285828003
923,2020-09-02,120.16062927246094,0.023096312065638447
924,2020-09-03,117.1236801147461,-0.025274078340823625
925,2020-09-04,116.6814193725586,-0.003776014737192468
926,2020-09-08,114.06708526611328,-0.022405744809273043
927,2020-09-09,115.86566162109376,0.01576770679100359
928,2020-09-10,115.1776885986328,-0.005937678280479641
929,2020-09-11,116.3275909423828,0.009983724779867309
930,2020-09-14,117.03523254394533,0.006083179371547676
931,2020-09-15,116.29810333251952,-0.006298353029281389
932,2020-09-16,115.74771881103516,-0.004732532222909147
933,2020-09-17,113.96880340576172,-0.01536890250232592
934,2020-09-18,113.0645980834961,-0.007933796751786515
935,2020-09-21,111.50189971923828,-0.01382128792518933
936,2020-09-22,112.36679077148438,0.007756738265660923
937,2020-09-23,110.2144012451172,-0.01915503247524797
938,2020-09-24,110.33234405517578,0.0010701215877975123
939,2020-09-25,110.17508697509766,-0.0014253035356475152
940,2020-09-28,110.43061065673828,0.0023192510090632723
941,2020-09-29,110.6861572265625,0.0023140917930677407
942,2020-09-30,111.25619506835938,0.005150037331498103
943,2020-10-01,111.74761199951172,0.004416984877564811
944,2020-10-02,110.91220092773438,-0.007475874041773634
945,2020-10-05,112.58302307128906,0.015064367396724121
946,2020-10-06,112.59284210205078,8.721590959148706e-05
947,2020-10-07,113.00563049316406,0.003666204559781283
948,2020-10-08,114.5191879272461,0.013393646205740017
949,2020-10-09,114.80420684814452,0.002488831138756309
950,2020-10-12,116.01309204101562,0.010529972951863531
951,2020-10-13,115.54133605957033,-0.004066402964921556
952,2020-10-14,114.44055938720705,-0.009527124316753177
953,2020-10-15,114.34226989746094,-0.0008588693577907813
954,2020-10-16,114.35210418701172,8.600747177389678e-05
955,2020-10-19,113.17272186279295,-0.010313604044312141
956,2020-10-20,114.9516372680664,0.01571858815439775
957,2020-10-21,115.7182388305664,0.006668905121484103
958,2020-10-22,116.2784423828125,0.004841099881120137
959,2020-10-23,116.31776428222656,0.00033817015956061347
960,2020-10-26,115.44303894042967,-0.007520135442721454
961,2020-10-27,114.01356506347656,-0.012382503874406314
962,2020-10-28,110.75040435791016,-0.028620811074100305
963,2020-10-29,111.34191131591795,0.005340901113970009
964,2020-10-30,112.4756317138672,0.010182332821038642
965,2020-11-02,116.51763153076172,0.035936671395428776
966,2020-11-03,117.86824035644533,0.01159145451156074
967,2020-11-04,117.3654556274414,-0.004265650589874381
968,2020-11-05,121.17082977294922,0.032423289503407116
969,2020-11-06,121.85107421875,0.0056139290873507
970,2020-11-09,121.42715454101562,-0.003478998280912471
971,2020-11-10,125.80433654785156,0.03604780185602885
972,2020-11-11,123.4974365234375,-0.018337205916082233
973,2020-11-12,122.51158142089844,-0.007982798107327271
974,2020-11-13,123.3002700805664,0.006437666141606346
975,2020-11-16,125.06494140625,0.014311982646352028
976,2020-11-17,125.55786895751952,0.00394137274384776
977,2020-11-18,124.5818862915039,-0.007773170045963562
978,2020-11-19,125.42970275878906,0.006805294834767439
979,2020-11-20,126.00149536132812,0.004558669836272067
980,2020-11-23,125.06494140625,-0.007432879684422966
981,2020-11-24,126.07050323486328,0.008040317432739919
982,2020-11-25,124.50301361083984,-0.012433436718367608
983,2020-11-27,125.43955993652344,0.007522278365172497
984,2020-11-30,124.53258514404295,-0.007230372881883884
985,2020-12-01,126.01136779785156,0.011874664386820166
986,2020-12-02,124.4734344482422,-0.012204719117695162
987,2020-12-03,124.08895874023438,-0.0030888173826978393
988,2020-12-04,125.87334442138672,0.014379890840149123
989,2020-12-07,126.80990600585938,0.007440507668862173
990,2020-12-08,127.36195373535156,0.004353348621413566
991,2020-12-09,127.6971664428711,0.0026319689490321707
992,2020-12-10,128.62387084960938,0.007257047533258065
993,2020-12-11,128.60414123535156,-0.00015338998995673148
994,2020-12-14,126.593017578125,-0.015638094060642316
995,2020-12-15,128.41680908203125,0.014406730630152742
996,2020-12-16,129.24496459960938,0.006448965080958491
997,2020-12-17,131.2560577392578,0.015560321022011436
998,2020-12-18,132.20249938964844,0.0072106512011105295
999,2020-12-21,132.9813232421875,0.005891143179098224
1000,2020-12-22,132.59683227539062,-0.002891315542834838
1001,2020-12-23,132.6264190673828,0.00022313347524582916
1002,2020-12-24,133.77984619140625,0.008696812687353228
1003,2020-12-28,133.7601318359375,-0.00014736416605343194
1004,2020-12-29,133.3953857421875,-0.002726867032378344
1005,2020-12-30,134.46009826660156,0.00798162933815294
1006,2020-12-31,134.95301818847656,0.003665919690893471
1007,2021-01-04,132.1039276123047,-0.021111721800788574
1008,2021-01-05,131.80816650390625,-0.0022388517415351528
1009,2021-01-06,135.77127075195312,0.030067213232417123
1010,2021-01-07,137.7232666015625,0.014377090519949398
1011,2021-01-08,137.1021728515625,-0.004509722760184354
1012,2021-01-11,136.8261260986328,-0.002013438205888618
1013,2021-01-12,136.1951904296875,-0.004611222190786135
1014,2021-01-13,136.61911010742188,0.0031125891920040782
1015,2021-01-14,137.476806640625,0.006278012882156236
1016,2021-01-15,136.86557006835938,-0.004446106853961518
1017,2021-01-19,135.31777954101562,-0.011308837763731816
1018,2021-01-20,138.63023376464844,0.024479076104177322
1019,2021-01-21,136.15576171875,-0.017849440044221065
1020,2021-01-22,136.234619140625,0.0005791706563096355
1021,2021-01-25,137.59510803222656,0.009986366902800414
1022,2021-01-26,137.23928833007812,-0.0025859909355577804
1023,2021-01-27,131.7042236328125,-0.04033148790420049
1024,2021-01-28,133.68104553222656,0.015009555843291666
1025,2021-01-29,131.42747497558594,-0.01685781666105657
1026,2021-02-01,132.53448486328125,0.008422971588710526
1027,2021-02-02,135.35142517089844,0.021254395114773894
1028,2021-02-03,134.97584533691406,-0.0027748494964877635
1029,2021-02-04,136.39913940429688,0.010544805730463347
1030,2021-02-05,139.02828979492188,0.0192754177343597
1031,2021-02-08,140.3329620361328,0.009384221320246633
1032,2021-02-09,140.520751953125,0.0013381739704450002
1033,2021-02-10,141.58822631835938,0.007596560297303823
1034,2021-02-11,141.31149291992188,-0.0019544944211340454
1035,2021-02-12,142.95223999023438,0.011610853699226542
1036,2021-02-16,141.93417358398438,-0.007121724054967915
1037,2021-02-17,141.5487060546875,-0.0027158190276761474
1038,2021-02-18,139.3544464111328,-0.01550179937856111
1039,2021-02-19,130.7059783935547,-0.062060940574962586
1040,2021-02-22,127.60238647460938,-0.023744835217869076
1041,2021-02-23,126.79188537597656,-0.0063517706919540284
1042,2021-02-24,127.2663116455078,0.0037417715504775018
1043,2021-02-25,128.78846740722656,0.011960398176373843
1044,2021-02-26,128.56112670898438,-0.001765225589053232
1045,2021-03-01,129.08497619628906,0.004074711389940644
1046,2021-03-02,128.837890625,-0.001914131129507557
1047,2021-03-03,129.52975463867188,0.0053700352459638
1048,2021-03-04,128.8872833251953,-0.004960028800091276
1049,2021-03-05,132.53448486328125,0.02829760581487073
1050,2021-03-08,136.1125030517578,0.026996884563044388
1051,2021-03-09,136.0927276611328,-0.00014528709840477827
1052,2021-03-10,137.7631378173828,0.01227405890790334
1053,2021-03-11,137.7631378173828,0.0
1054,2021-03-12,139.13702392578125,0.009972813701584204
1055,2021-03-15,140.48121643066406,0.009660926092539102
1056,2021-03-16,138.87013244628906,-0.011468323134646075
1057,2021-03-17,139.64108276367188,0.005551592007597472
1058,2021-03-18,139.868408203125,0.0016279266456122876
1059,2021-03-19,137.6939239501953,-0.015546643311846187
1060,2021-03-22,139.94747924804688,0.01636641060985866
1061,2021-03-23,139.13702392578125,-0.005791139123193179
1062,2021-03-24,140.194580078125,0.007600824873959411
1063,2021-03-25,140.81727600097656,0.004441654752306068
1064,2021-03-26,143.14002990722656,0.016494807826235025
1065,2021-03-29,143.09060668945312,-0.0003452788001054863
1066,2021-03-30,141.4202117919922,-0.011673686596955779
1067,2021-03-31,140.0265655517578,-0.009854646818689639
1068,2021-04-01,142.20103454589844,0.01552897470256731
1069,2021-04-05,143.0115203857422,0.005699577660823296
1070,2021-04-06,144.2766876220703,0.008846610629098972
1071,2021-04-07,141.92428588867188,-0.016304794434708003
1072,2021-04-08,142.01324462890625,0.0006268042123822593
1073,2021-04-09,143.51559448242188,0.010578941826457022
1074,2021-04-12,144.51390075683594,0.006956082215416215
1075,2021-04-13,144.6325225830078,0.0008208333284940306
1076,2021-04-14,144.1185302734375,-0.0035537809919294894
1077,2021-04-15,145.49240112304688,0.009532922983621406
1078,2021-04-16,146.36221313476562,0.005978401655376775
1079,2021-04-19,147.97329711914062,0.011007513140646186
1080,2021-04-20,148.67506408691406,0.004742524370518142
1081,2021-04-21,150.1774139404297,0.010104921512846143
1082,2021-04-22,148.32911682128906,-0.012307424070265194
1083,2021-04-23,149.69309997558594,0.009195653446384622
1084,2021-04-26,149.16925048828125,-0.0034994898722127132
1085,2021-04-27,150.2592315673828,0.007307009155933297
1086,2021-04-28,149.74395751953125,-0.0034292338811841017
1087,2021-04-29,149.54579162597656,-0.0013233648745315518
1088,2021-04-30,149.43679809570312,-0.0007288304745214358
1089,2021-05-03,151.07177734375,0.010940941380447544
1090,2021-05-04,153.6084747314453,0.016791338741737993
1091,2021-05-05,152.77609252929688,-0.0054188559817659465
1092,2021-05-06,155.0948028564453,0.015177180465613782
1093,2021-05-07,156.12533569335938,0.0066445349420760635
1094,2021-05-10,154.0642852783203,-0.013201255298416759
1095,2021-05-11,152.5878448486328,-0.009583275105065958
1096,2021-05-12,150.22950744628906,-0.015455604636681386
1097,2021-05-13,153.2120819091797,0.019853452983975117
1098,2021-05-14,152.14193725585938,-0.006984727574909311
1099,2021-05-17,151.7158660888672,-0.0028004846965742347
1100,2021-05-18,149.54579162597656,-0.014303543319717837
1101,2021-05-19,148.1783447265625,-0.009144001208901464
1102,2021-05-20,148.3765411376953,0.0013375531458295065
1103,2021-05-21,148.26754760742188,-0.0007345738715683892
1104,2021-05-24,147.90089416503906,-0.002472917697091903
1105,2021-05-25,146.3848419189453,-0.010250460314337406
1106,2021-05-26,146.51364135742188,0.0008798686857747207
1107,2021-05-27,145.43359375,-0.0073716522053197675
1108,2021-05-28,145.96865844726562,0.0036790997421503047
1109,2021-06-01,145.54257202148438,-0.0029190267987232454
1110,2021-06-02,144.3336944580078,-0.008306006597836646
1111,2021-06-03,144.0760498046875,-0.001785062415867622
1112,2021-06-04,144.23458862304688,0.0011003828781694924
1113,2021-06-07,141.2222900390625,-0.020884717131595454
1114,2021-06-08,141.4799041748047,0.0018241747508196404
1115,2021-06-09,140.87545776367188,-0.004272312839468606
1116,2021-06-10,143.6697998046875,0.01983554896909956
1117,2021-06-11,144.5021514892578,0.005793504868120136
1118,2021-06-14,142.18345642089844,-0.016046093739522926
1119,2021-06-15,143.0157928466797,0.005853961119902218
1120,2021-06-16,141.3213653564453,-0.011847834819549541
1121,2021-06-17,140.22146606445312,-0.007782965365625949
1122,2021-06-18,138.82431030273438,-0.009963922079352261
1123,2021-06-21,140.2908477783203,0.010563981714642567
1124,2021-06-22,140.34039306640625,0.0003531612280527341
1125,2021-06-23,138.89369201660156,-0.010308515019764375
1126,2021-06-24,138.90357971191406,7.118894435698131e-05
1127,2021-06-25,139.63685607910156,0.005279031459868078
1128,2021-06-28,139.4287567138672,-0.001490289677651413
1129,2021-06-29,139.00267028808594,-0.0030559436648758265
1130,2021-06-30,139.5575714111328,0.003992017720931829
1131,2021-07-01,139.83502197265625,0.0019880724400547223
1132,2021-07-02,139.13150024414062,-0.005031083905812861
1133,2021-07-06,138.7747802734375,-0.002563905155030799
1134,2021-07-07,139.73594665527344,0.006926088298911948
1135,2021-07-08,138.0018768310547,-0.012409618753982277
1136,2021-07-09,139.89447021484375,0.013714258293066717
1137,2021-07-12,139.1414031982422,-0.005383107820094879
1138,2021-07-13,137.2388916015625,-0.013673224165844267
1139,2021-07-14,137.17942810058594,-0.0004332846198524809
1140,2021-07-15,137.29833984375,0.0008668336412429589
1141,2021-07-16,137.77395629882812,0.003464109293815243
1142,2021-07-19,135.88136291503906,-0.013736945897699804
1143,2021-07-20,135.77235412597656,-0.00080223502858634
1144,2021-07-21,134.8210906982422,-0.007006311659380593
1145,2021-07-22,133.44375610351562,-0.01021601729813415
1146,2021-07-23,134.9994659423828,0.011658168836767402
1147,2021-07-26,135.47509765625,0.00352321181826154
1148,2021-07-27,135.51470947265625,0.00029239186456808675
1149,2021-07-28,136.39662170410156,0.006507870878941446
1150,2021-07-29,137.78387451171875,0.010170727033303573
1151,2021-07-30,127.74610137939452,-0.07285158127463243
1152,2021-08-02,128.7270965576172,0.0076792572738419995
1153,2021-08-03,127.83268737792967,-0.006948103418825902
1154,2021-08-04,125.98419952392578,-0.014460212735252553
1155,2021-08-05,126.70968627929688,0.005758553517922094
1156,2021-08-06,127.63390350341795,0.007293974527597724
1157,2021-08-09,129.27369689941406,0.012847631788933
1158,2021-08-10,128.39913940429688,-0.006765161947814291
1159,2021-08-11,130.8140869140625,0.018808128473210006
1160,2021-08-12,131.85755920410156,0.007976757814504909
1161,2021-08-13,132.22528076171875,0.002788778738487041
1162,2021-08-16,132.05633544921875,-0.001277708101860342
1163,2021-08-17,132.18551635742188,0.0009782257531505412
1164,2021-08-18,131.23147583007812,-0.0072174361732950665
1165,2021-08-19,131.58926391601562,0.0027263892574123094
