Date,Adj Close,daily_return
2017-01-03,67.9432373046875,
2017-01-04,69.06912231445312,0.016570965035367147
2017-01-05,68.36196899414062,-0.010238342353519725
2017-01-06,68.38985443115234,0.00040790862846717957
2017-01-09,68.55736541748047,0.0024493543336425727
2017-01-10,67.75714874267578,-0.011672220335944394
2017-01-11,67.96186065673828,0.003021259274647914
2017-01-12,68.23170471191406,0.003970521886366596
2017-01-13,68.38985443115234,0.0023178333284508135
2017-01-17,68.24100494384766,-0.0021764849266426856
2017-01-18,68.37128448486328,0.0019091093562122463
2017-01-19,67.6734390258789,-0.010206703943654416
2017-01-20,66.65921020507812,-0.014987103291927206
2017-01-23,67.41289520263672,0.011306539565048457
2017-01-24,68.42709350585938,0.015044574189761128
2017-01-25,68.32474517822266,-0.001495728115763928
2017-01-26,68.2223892211914,-0.0014980803333295434
2017-01-27,68.33404541015625,0.0016366502293378993
2017-01-30,67.97892761230469,-0.005196791668341416
2017-01-31,68.19387817382812,0.003162017540925932
2017-02-01,69.10040283203125,0.01329334366191004
2017-02-02,68.53031158447266,-0.008250187035007128
2017-02-03,68.95085144042969,0.006136552515723759
2017-02-06,68.54900360107422,-0.0058280330258524415
2017-02-07,67.9696044921875,-0.008452334511797943
2017-02-08,68.73592376708984,0.011274440694890586
2017-02-09,68.75459289550781,0.00027160656894964497
2017-02-10,69.89473724365234,0.01658280996408923
2017-02-13,69.55830383300781,-0.004813429793315116
2017-02-14,68.99757385253906,-0.008061294620048898
2017-02-15,68.4088134765625,-0.008533059107771801
2017-02-16,69.3433609008789,0.013661213765044922
2017-02-17,69.06298828125,-0.004043251091184863
2017-02-21,69.70783233642578,0.009337042477075341
2017-02-22,69.39942932128906,-0.004424223287396112
2017-02-23,69.26860046386719,-0.001885157539497806
2017-02-24,69.49288940429688,0.003237959752726338
2017-02-27,69.60503387451172,0.0016137546039050044
2017-02-28,69.63306427001953,0.00040270644158213464
2017-03-01,71.08161163330078,0.02080257961453702
2017-03-02,70.84796905517578,-0.00328696230651504
2017-03-03,71.06292724609375,0.0030340769648677934
2017-03-06,70.69844818115234,-0.005128962161651485
2017-03-07,70.53023529052734,-0.0023793010306815132
2017-03-08,70.96947479248047,0.00622767668566282
2017-03-09,70.8853530883789,-0.0011853223424230785
2017-03-10,71.76383972167969,0.01239306281236252
2017-03-13,71.72647094726562,-0.0005207187151494708
2017-03-14,71.52085876464844,-0.0028666150711409433
2017-03-15,72.18437957763672,0.009277304893271943
2017-03-16,71.94142150878906,-0.0033657983939080482
2017-03-17,72.03486633300781,0.0012989015543338756
2017-03-20,72.74510955810547,0.00985971462505808
2017-03-21,71.7451400756836,-0.013746209037229451
2017-03-22,71.8199234008789,0.0010423469118105988
2017-03-23,72.10961151123047,0.0040335341035466765
2017-03-24,71.60497283935547,-0.0069982164831994265
2017-03-27,71.60497283935547,0.0
2017-03-28,72.02550506591797,0.005872947225410652
2017-03-29,71.99747467041016,-0.00038917318916620314
2017-03-30,71.82925415039062,-0.0023364780610655167
2017-03-31,71.95073699951172,0.0016912725957969332
2017-04-03,71.44609069824219,-0.007013775290070412
2017-04-04,71.71710968017578,0.0037933353565593464
2017-04-05,71.10029602050781,-0.008600648609776163
2017-04-06,71.52085876464844,0.005915063194945391
2017-04-07,71.17507934570312,-0.0048346653678077445
2017-04-10,71.85729217529297,0.009584995701603427
2017-04-11,71.88534545898438,0.00039040273912593904
2017-04-12,71.24047088623047,-0.008970876729275101
2017-04-13,70.83863067626953,-0.005640616983044189
2017-04-17,72.21241760253906,0.019393188619747592
2017-04-18,72.49278259277344,0.0038825038621130847
2017-04-19,72.4740982055664,-0.0002577413438795695
2017-04-20,72.7264175415039,0.003481510528379639
2017-04-21,72.88529968261719,0.00218465512923971
2017-04-24,73.17501068115234,0.00397488930959633
2017-04-25,73.57687377929688,0.005491807850846575
2017-04-26,74.14693450927734,0.007747824835429018
2017-04-27,73.63291931152344,-0.0069323863643964145
2017-04-28,75.04408264160156,0.019164842889195066
2017-05-01,74.8095474243164,-0.00312529927782923
2017-05-02,75.25050354003906,0.005894382881660443
2017-05-03,75.4850845336914,0.003117334537536154
2017-05-04,76.36709594726562,0.011684578735293716
2017-05-05,76.8550033569336,0.006388974251487767
2017-05-08,77.41796112060547,0.007324933173932235
2017-05-09,77.38980102539062,-0.0003637411113290856
2017-05-10,77.7557373046875,0.0047284819762853925
2017-05-11,77.43670654296875,-0.004102986773421247
2017-05-12,77.3428955078125,-0.001211454352131991
2017-05-15,77.53054809570312,0.0024262420828513598
2017-05-16,77.6806869506836,0.0019365122350887276
2017-05-17,77.2021484375,-0.006160328029634954
2017-05-18,77.07079315185547,-0.001701445986971084
2017-05-19,77.27720642089844,0.002678229464127435
2017-05-22,77.72756958007812,0.005827891302472077
2017-05-23,78.05599975585938,0.004225401328712408
2017-05-24,78.24366760253906,0.0024042718979535582
2017-05-25,78.95674133300781,0.009113500840617572
2017-05-26,79.1631851196289,0.0026146442106873558
2017-05-30,79.32266998291016,0.00201463423989634
2017-05-31,79.763671875,0.005559594655410116
2017-06-01,80.93653106689453,0.014704177532505636
2017-06-02,81.0022201538086,0.0008116123343582249
2017-06-05,80.55183410644531,-0.005560169172006413
2017-06-06,80.20467376708984,-0.004309775726480836
2017-06-07,80.4017105102539,0.0024566740803191323
2017-06-08,79.98886108398438,-0.00513483386919833
2017-06-09,80.36416625976562,0.004691967990233081
2017-06-12,80.1671371459961,-0.0024517035756043137
2017-06-13,80.86145782470703,0.008660913978336016
2017-06-14,80.92713928222656,0.0008122714985168145
2017-06-15,80.90837860107422,-0.00023182187482151395
2017-06-16,80.64566802978516,-0.0032470131750430564
2017-06-19,81.39629364013672,0.009307699082786725
2017-06-20,81.52766418457031,0.0016139622402759901
2017-06-21,81.63086700439453,0.001265862586110389
2017-06-22,81.46195983886719,-0.0020691580492248063
2017-06-23,81.44319915771484,-0.00023029989935730022
2017-06-26,81.76222229003906,0.003917124273402184
2017-06-27,81.03975677490234,-0.008836177575676452
2017-06-28,81.565185546875,0.006483592657269499
2017-06-29,81.1523208618164,-0.005061775833530402
2017-06-30,81.49950408935547,0.004278167572437486
2017-07-03,81.7059326171875,0.0025328807842279755
2017-07-05,81.90296936035156,0.002411535329842396
2017-07-06,81.9217300415039,0.00022905984116161626
2017-07-07,82.65357208251953,0.00893343000257496
2017-07-10,82.85064697265625,0.002384348131257541
2017-07-11,82.7286605834961,-0.0014723649557065732
2017-07-12,83.48866271972656,0.009186684890944319
2017-07-13,83.16027069091797,-0.003933372725240747
2017-07-14,83.910888671875,0.009026160866489441
2017-07-17,84.24866485595703,0.004025415407085786
2017-07-18,84.2017593383789,-0.0005567508714626745
2017-07-19,84.53015899658203,0.00390015197762561
2017-07-20,84.16423034667969,-0.00432897150846645
2017-07-21,83.98596954345703,-0.002118011446054724
2017-07-24,84.24020385742188,0.0030271045907650507
2017-07-25,83.51513671875,-0.008607138936879366
2017-07-26,82.92189025878906,-0.0071034603219148895
2017-07-27,82.86539459228516,-0.000681311850557087
2017-07-28,77.50739288330078,-0.0646590984734563
2017-07-31,76.2079086303711,-0.01676593941027349
2017-08-01,77.69571685791016,0.01952301610526197
2017-08-02,77.45088195800781,-0.003151202019927246
2017-08-03,77.45088195800781,0.0
2017-08-04,77.55448913574219,0.0013377146278406027
2017-08-07,77.91229248046875,0.00461357361403425
2017-08-08,77.91229248046875,0.0
2017-08-09,77.6674575805664,-0.0031424425094886965
2017-08-10,76.75408172607422,-0.011760084376969848
2017-08-11,77.3473129272461,0.00772898571425884
2017-08-14,78.0723876953125,0.009374272235525671
2017-08-15,77.92172241210938,-0.0019298152349472852
2017-08-16,78.67505645751953,0.009667831024395834
2017-08-17,77.33789825439453,-0.016995961151257566
2017-08-18,77.3567123413086,0.00024327124655210142
2017-08-21,76.73523712158203,-0.00803388873333355
2017-08-22,77.32848358154297,0.007731082644873766
2017-08-23,76.8482666015625,-0.006210091776519544
2017-08-24,76.34917449951172,-0.006494513462983353
2017-08-25,77.58271789550781,0.01615660423419496
2017-08-28,77.0836410522461,-0.006432835260217318
2017-08-29,77.21548461914062,0.0017103962020317276
2017-08-30,78.1288833618164,0.011829217250672652
2017-08-31,78.73155212402344,0.007713776727309218
2017-09-01,78.98580169677734,0.0032293225002524295
2017-09-05,78.39253997802734,-0.007510991925200772
2017-09-06,78.01587677001953,-0.004804834849252093
2017-09-07,78.73155212402344,0.009173457809281915
2017-09-08,78.92929077148438,0.002511555305672708
2017-09-11,80.1534423828125,0.015509471824246779
2017-09-12,80.22876739501953,0.0009397601646012887
2017-09-13,79.56961059570312,-0.008215965678133097
2017-09-14,79.91802978515625,0.004378797217237329
2017-09-15,79.7673568725586,-0.0018853431822920541
2017-09-18,80.45477294921875,0.008617761746304575
2017-09-19,80.56775665283203,0.0014043132491914356
2017-09-20,81.0950927734375,0.006545250141167136
2017-09-21,81.12334442138672,0.00034837678807697614
2017-09-22,80.71843719482422,-0.004991254113726473
2017-09-25,81.69774627685547,0.012132408853104515
2017-09-26,81.6883316040039,-0.00011523785270228792
2017-09-27,81.49059295654297,-0.0024206473994291544
2017-09-28,81.99906921386719,0.006239692691834664
2017-09-29,81.27400970458984,-0.008842289506802437
2017-10-02,82.75240325927734,0.018190237691742883
2017-10-03,83.27027893066406,0.0062581345192371796
2017-10-04,82.9972152709961,-0.0032792451661575184
2017-10-05,82.9972152709961,0.0
2017-10-06,83.41156005859375,0.004992273370194145
2017-10-09,83.29855346679688,-0.0013548073158863305
2017-10-10,83.3079605102539,0.00011293165445880327
2017-10-11,83.20439147949219,-0.0012432068931632623
2017-10-12,83.32681274414062,0.001471331770734885
2017-10-13,83.65635681152344,0.00395483826310139
2017-10-16,83.75056457519531,0.0011261279747589725
2017-10-17,83.78821563720703,0.00044956188895795
2017-10-18,83.43037414550781,-0.004270785443726721
2017-10-19,83.46805572509766,0.0004516530097793403
2017-10-20,83.99536895751953,0.006317545411128167
2017-10-23,83.83528137207031,-0.0019059096642599638
2017-10-24,83.9200439453125,0.0010110608786055852
2017-10-25,83.32681274414062,-0.00706900489182849
2017-10-26,83.75056457519531,0.0050854198918641735
2017-10-27,82.79947662353516,-0.011356197495316245
2017-10-30,81.41524505615234,-0.016717878226169325
2017-10-31,82.29425048828125,0.010796570489011614
2017-11-01,82.61559295654297,0.0039047985291205123
2017-11-02,81.85002899169922,-0.00926657955776522
2017-11-03,82.1713638305664,0.00392589767927598
2017-11-06,81.14115142822266,-0.012537365261065858
2017-11-07,81.0182876586914,-0.0015141980039553582
2017-11-08,81.02774047851562,0.00011667513714974653
2017-11-09,80.11094665527344,-0.011314567305320211
2017-11-10,80.25273132324219,0.0017698538575365852
2017-11-13,80.8954086303711,0.008008167404799371
2017-11-14,80.91432189941406,0.0002337990420369085
2017-11-15,80.79145050048828,-0.0015185370901151796
2017-11-16,81.38690185546875,0.007370227311080058
2017-11-17,80.95213317871094,-0.005341998120654612
2017-11-20,80.78199005126953,-0.0021017744778361047
2017-11-21,81.7933120727539,0.012519152113515952
2017-11-22,81.14115142822266,-0.007973275907340205
2017-11-24,81.51919555664062,0.004659092479755822
2017-11-27,81.98233795166016,0.005681390644952211
2017-11-28,82.14300537109375,0.0019597808924201043
2017-11-29,82.75736236572266,0.007479115134069625
2017-11-30,83.56074523925781,0.009707690658201873
2017-12-01,82.79515838623047,-0.009162039553803125
2017-12-04,83.22992706298828,0.005251136482276708
2017-12-05,84.11840057373047,0.01067492838327011
2017-12-06,83.33392333984375,-0.009325869590198876
2017-12-07,83.53239440917969,0.0023816359698625167
2017-12-08,83.07872009277344,-0.005431118305838867
2017-12-11,82.49272918701172,-0.007053441664813143
2017-12-12,81.68934631347656,-0.00973883251836516
2017-12-13,81.93508911132812,0.0030082600601128995
2017-12-14,81.63263702392578,-0.0036913621585422662
2017-12-15,82.20919036865234,0.0070627798604323555
2017-12-18,81.82164764404297,-0.004714104625912374
2017-12-19,81.83111572265625,0.00011571605908589078
2017-12-20,81.59483337402344,-0.002887438922788532
2017-12-21,81.05610656738281,-0.006602462243793683
2017-12-22,81.18841552734375,0.0016323132896958192
2017-12-26,80.7063980102539,-0.005937023329732338
2017-12-27,80.92377471923828,0.0026934259779101133
2017-12-28,81.99180603027344,0.01319799174891001
2017-12-29,81.54756927490234,-0.0054180628148021714
2018-01-02,82.23753356933594,0.00846088118344368
2018-01-03,82.40766143798828,0.002068737488447381
2018-01-04,81.29237365722656,-0.013533787530191854
2018-01-05,82.14300537109375,0.01046385627087143
2018-01-08,82.41709899902344,0.0033367859708983705
2018-01-09,81.65155029296875,-0.009288712116204856
2018-01-10,80.97102355957031,-0.008334523116299453
2018-01-11,81.51919555664062,0.0067699773693365994
2018-01-12,81.81221771240234,0.0035945172638280898
2018-01-16,81.5097427368164,-0.003697185873254738
2018-01-17,82.07685852050781,0.0069576441373706555
2018-01-18,82.45491790771484,0.0046061629796974035
2018-01-19,83.74977111816406,0.015703771749532747
2018-01-22,82.66284942626953,-0.012978204923819736
2018-01-23,82.79515838623047,0.0016005855215401876
2018-01-24,83.36225891113281,0.006849440667253459
2018-01-25,84.5248031616211,0.013945690360041674
2018-01-26,84.25069427490234,-0.0032429402549997155
2018-01-29,82.91806030273438,-0.015817483566600732
2018-01-30,83.18363952636719,0.0032029116776632893
2018-01-31,82.92752838134766,-0.0030788643834025464
2018-02-01,82.37732696533203,-0.0066347258474349635
2018-02-02,81.39079284667969,-0.011975796678466155
2018-02-05,79.09516143798828,-0.028205050330641357
2018-02-06,79.48407745361328,0.004917064565699292
2018-02-07,79.5409927368164,0.0007160589268504491
2018-02-08,77.19792938232422,-0.029457305898165864
2018-02-09,77.9378433227539,0.00958463454071734
2018-02-12,78.35521697998047,0.005355211787143599
2018-02-13,85.10934448242188,0.08619882329171613
2018-02-14,86.00102233886719,0.010476850243271274
2018-02-15,86.48481750488281,0.00562545831268535
2018-02-16,87.11090850830078,0.007239316928461026
2018-02-20,86.3804702758789,-0.008385152272315843
2018-02-21,85.52674865722656,-0.009883271252469017
2018-02-22,85.9535903930664,0.004990739652112053
2018-02-23,86.31407165527344,0.004193905810781606
2018-02-26,86.1148452758789,-0.0023081564288869316
2018-02-27,84.90061950683594,-0.0141000749075616
2018-02-28,84.82473754882812,-0.0008937739023412439
2018-03-01,84.42632293701172,-0.0046969153495708404
2018-03-02,85.07139587402344,0.007640661283957462
2018-03-05,85.75438690185547,0.008028445058588574
2018-03-06,86.10536193847656,0.004092793958433649
2018-03-07,85.50774383544922,-0.006940544579028041
2018-03-08,85.3275146484375,-0.002107752806091434
2018-03-09,86.20022583007812,0.010227781568891592
2018-03-12,86.1148452758789,-0.000990491073277755
2018-03-13,85.84923553466797,-0.0030843664685226146
2018-03-14,85.44135284423828,-0.004751151106814122
2018-03-15,85.64055633544922,0.0023314646196448408
2018-03-16,85.5172348022461,-0.001439989865550162
2018-03-19,85.33700561523438,-0.002107518881176329
2018-03-20,85.1662368774414,-0.002001110029134723
2018-03-21,84.98600006103516,-0.0021162942383566863
2018-03-22,83.43978118896484,-0.01819380687360095
2018-03-23,82.31092071533203,-0.01352904403088373
2018-03-26,83.67692565917969,0.016595670804994578
2018-03-27,83.5536117553711,-0.0014736906600854027
2018-03-28,83.81922149658203,0.0031789139407711886
2018-03-29,85.21368408203125,0.01663654899856204
2018-04-02,83.41132354736328,-0.021151069268791622
2018-04-03,84.9575424194336,0.018537277749733017
2018-04-04,85.099853515625,0.0016750848969808718
2018-04-05,85.75438690185547,0.007691357378309505
2018-04-06,83.95204162597656,-0.021017528560278387
2018-04-09,85.28009796142578,0.01581922618827991
2018-04-10,87.95516204833984,0.031367976243695805
2018-04-11,87.50931549072266,-0.00506902093332684
2018-04-12,87.93618774414062,0.004878020711557518
2018-04-13,87.98363494873047,0.0005395640385037481
2018-04-16,89.46345520019531,0.01681926704127612
2018-04-17,91.1899185180664,0.019297972719785284
2018-04-18,90.69664001464844,-0.005409353483743273
2018-04-19,89.92828369140625,-0.008471717619507046
2018-04-20,89.58677673339844,-0.00379754782354913
2018-04-23,89.50140380859375,-0.0009529634608771431
2018-04-24,88.3915023803711,-0.012400938767354708
2018-04-25,88.36306762695312,-0.00032169102970558416
2018-04-26,88.48638153076172,0.001395536700119937
2018-04-27,88.65711975097656,0.001929542346078339
2018-04-30,88.69507598876953,0.00042812396680136366
2018-05-01,88.73301696777344,0.000427768718623156
2018-05-02,87.8033676147461,-0.01047692713260251
2018-05-03,86.43738555908203,-0.015557285475171878
2018-05-04,87.51880645751953,0.012511032019800306
2018-05-07,88.03105163574219,0.005852972623333175
2018-05-08,87.34568786621094,-0.00778547747409819
2018-05-09,88.48796081542969,0.013077611237871212
2018-05-10,89.27803802490234,0.008928640712159819
2018-05-11,89.75397491455078,0.005330951487931168
2018-05-14,88.87824249267578,-0.009757032183908665
2018-05-15,87.66932678222656,-0.013601930872438661
2018-05-16,89.04007720947266,0.015635461997456357
2018-05-17,88.80208587646484,-0.0026728563189351018
2018-05-18,89.05908203125,0.002894032862501339
2018-05-21,89.48743438720703,0.0048097548973919935
2018-05-22,89.43984985351562,-0.0005317454234469166
2018-05-23,89.56359100341797,0.0013835124958840872
2018-05-24,89.50648498535156,-0.0006376030418904222
2018-05-25,89.55406951904297,0.0005316322465260814
2018-05-29,88.82112884521484,-0.008184336878987675
2018-05-30,89.43984985351562,0.006965921468742087
2018-05-31,87.87873840332031,-0.017454316535102654
2018-06-01,88.30708312988281,0.0048742703223230155
2018-06-04,89.34467315673828,0.011749793901915773
2018-06-05,89.40177917480469,0.000639165336317582
2018-06-06,89.39225769042969,-0.00010650217996654998
2018-06-07,88.7544937133789,-0.007134443110939137
2018-06-08,89.15428161621094,0.004504424352000713
2018-06-11,89.30658721923828,0.0017083375051238914
2018-06-12,89.62069702148438,0.003517207543436651
2018-06-13,89.78253173828125,0.0018057739135646234
2018-06-14,90.29655456542967,0.005725198623790284
2018-06-15,90.35366821289062,0.0006325119240244703
2018-06-18,90.27751159667967,-0.0008428724335962645
2018-06-19,89.71590423583984,-0.006220899877578012
2018-06-20,90.08712768554688,0.004137766351116401
2018-06-21,88.6212387084961,-0.0162719027092032
2018-06-22,88.17382049560547,-0.005048656726209022
2018-06-25,87.74546813964844,-0.004858044638979653
2018-06-26,88.24999237060547,0.005749860837873433
2018-06-27,87.66932678222656,-0.006579780607123498
2018-06-28,88.24999237060547,0.006623360868520223
2018-06-29,88.88775634765625,0.007226787900133758
2018-07-02,89.08763885498047,0.0022487068583714187
2018-07-03,89.4684066772461,0.0042740814231865265
2018-07-05,89.991943359375,0.00585163748380535
2018-07-06,89.55406951904297,-0.00486570046146706
2018-07-09,90.52500915527344,0.010841937629914256
2018-07-10,91.48640441894533,0.01062021724872575
2018-07-11,91.07709503173828,-0.0044739914067744024
2018-07-12,91.13421630859376,0.0006271749975730323
2018-07-13,90.30607604980467,-0.009087039888343251
2018-07-16,88.80208587646484,-0.016654363018833496
2018-07-17,90.08712768554688,0.014470851629202697
2018-07-18,90.06809997558594,-0.00021121452586825296
2018-07-19,91.69583892822266,0.018072313650203897
2018-07-20,91.17229461669922,-0.005709575457761518
2018-07-23,90.56307220458984,-0.0066821002440558
2018-07-24,90.1918487548828,-0.004099059811800809
2018-07-25,90.17279815673828,-0.00021122305848608747
2018-07-26,91.44835662841795,0.014145712429401325
2018-07-27,97.94977569580078,0.07109388628819246
2018-07-30,97.56901550292967,-0.003887300304327601
2018-07-31,97.8268814086914,0.0026429077349252594
2018-08-01,97.8268814086914,0.0
2018-08-02,98.3521728515625,0.005369602253562533
2018-08-03,99.4218292236328,0.010875777738888148
2018-08-06,99.52689361572266,0.001056753762330498
2018-08-07,98.89654541015624,-0.006333445993001896
2018-08-08,98.3330535888672,-0.005697790746401199
2018-08-09,99.2308120727539,0.00912977326668063
2018-08-10,97.77912139892578,-0.014629434582917433
2018-08-13,96.8431625366211,-0.009572175009490036
2018-08-14,97.3970947265625,0.005719889514470777
2018-08-15,96.78585815429688,-0.006275716683147858
2018-08-16,97.1010284423828,0.00325636713974764
2018-08-17,98.14205169677734,0.010721032218647064
2018-08-20,98.237548828125,0.0009730500809450593
2018-08-21,98.6482391357422,0.004180583824783035
2018-08-22,98.5431671142578,-0.0010651180639912328
2018-08-23,98.28530883789062,-0.002616703764637407
2018-08-24,99.13532257080078,0.008648431214802965
2018-08-27,99.84207153320312,0.007129133633449358
2018-08-28,99.22127532958984,-0.006217781683414247
2018-08-29,99.994873046875,0.007796691936436506
2018-08-30,99.994873046875,0.0
2018-08-31,100.0044403076172,9.567751276318148e-05
2018-09-04,101.599365234375,0.01594854110329247
2018-09-05,103.31846618652344,0.016920390675499997
2018-09-06,104.05388641357422,0.007117994044966824
2018-09-07,103.0510711669922,-0.009637460753711857
2018-09-10,103.68138885498048,0.0061165563914116206
2018-09-11,103.6432113647461,-0.0003682193174301407
2018-09-12,104.4740982055664,0.008016799459215962
2018-09-13,105.83984375,0.013072575575108658
2018-09-14,106.93815612792967,0.010377116396013797
2018-09-17,106.29828643798828,-0.005983548932486871
2018-09-18,106.57522583007812,0.0026053043879630255
2018-09-19,106.13590240478516,-0.00412219089259469
2018-09-20,105.52466583251952,-0.005758999155012434
2018-09-21,105.3623046875,-0.0015386084735601324
2018-09-24,105.41961669921876,0.0005439517661345317
2018-09-25,103.87242889404295,-0.014676469651660917
2018-09-26,103.71959686279295,-0.0014713435786304352
2018-09-27,103.4712905883789,-0.0023940150359678114
2018-09-28,102.89824676513672,-0.005538191511709534
2018-10-01,102.92689514160156,0.0002784146218761663
2018-10-02,103.2898178100586,0.003526023669107481
2018-10-03,103.14656066894533,-0.0013869434969544514
2018-10-04,102.27745819091795,-0.00842589876376787
2018-10-05,102.35385131835938,0.0007469204729240175
2018-10-08,102.8313980102539,0.004665644582431794
2018-10-09,100.96904754638672,-0.018110718126009395
2018-10-10,97.81731414794922,-0.031214847272769908
2018-10-11,97.00553131103516,-0.008298968786714322
2018-10-12,97.0819320678711,0.0007875917569171165
2018-10-15,97.5594711303711,0.0049189282941561885
2018-10-16,100.85441589355467,0.0337737046440163
2018-10-17,100.30046844482422,-0.005492545307238861
2018-10-18,99.58419036865234,-0.007141323338543559
2018-10-19,99.63194274902344,0.0004795176844267779
2018-10-22,99.29768371582033,-0.003354938426174403
2018-10-23,99.02071380615234,-0.002789288725612571
2018-10-24,95.5824737548828,-0.03472243250033935
2018-10-25,96.73811340332033,0.012090497379269705
2018-10-26,95.84991455078124,-0.009181477923143055
2018-10-29,95.65889739990234,-0.001992877633476553
2018-10-30,97.144287109375,0.015527982757975733
2018-10-31,97.7096939086914,0.005820278434693904
2018-11-01,98.87882232666016,0.011965326787957142
2018-11-02,99.47299194335938,0.00600906850140559
2018-11-05,97.6330108642578,-0.018497293015467653
2018-11-06,99.7604751586914,0.021790419813965345
2018-11-07,100.7283706665039,0.00970219424349028
2018-11-08,100.74755096435548,0.00019041604390768185
2018-11-09,99.94255828857422,-0.007990195970779213
2018-11-12,97.52759552001952,-0.024163507617863234
2018-11-13,98.11216735839844,0.005993912135964896
2018-11-14,97.82466888427734,-0.0029303039761712224
2018-11-15,100.4217300415039,0.02654812111144267
2018-11-16,101.84959411621094,0.01421867631753515
2018-11-19,100.79544830322266,-0.010350024682332037
2018-11-20,99.96172332763672,-0.008271454610508266
2018-11-21,99.18547821044922,-0.007765423517592462
2018-11-23,99.56880950927734,0.0038647925658510385
2018-11-26,99.3675537109375,-0.0020212735226194933
2018-11-27,98.03550720214844,-0.01340524606919491
2018-11-28,99.6934051513672,0.016911198774135938
2018-11-29,99.52088928222656,-0.0017304642055179231
2018-11-30,99.71256256103516,0.0019259602701602319
2018-12-03,100.10546875,0.003940388040116316
2018-12-04,98.64883422851562,-0.014550998458656927
2018-12-06,97.3934326171875,-0.012725964996403771
2018-12-07,95.61097717285156,-0.018301597925416746
2018-12-10,94.97847747802734,-0.0066153459940143655
2018-12-11,94.55683135986328,-0.00443938594679627
2018-12-12,95.7643051147461,0.012769820408717214
2018-12-13,96.13804626464844,0.0039027187578348776
2018-12-14,96.15721130371094,0.0001993491630747357
2018-12-17,94.52809143066406,-0.0169422537421694
2018-12-18,93.85724639892578,-0.007096779608951942
2018-12-19,91.60521697998048,-0.023994198693762958
2018-12-20,91.04938507080078,-0.0060676883643119295
2018-12-21,89.65026092529297,-0.015366651234600237
2018-12-24,85.96073913574219,-0.04115461295338918
2018-12-26,87.9444580078125,0.02307703367857017
2018-12-27,88.51945495605469,0.006538182862996456
2018-12-28,88.835693359375,0.0035725299424551604
2018-12-31,90.14859008789062,0.014778932643711551
2019-01-02,86.42073059082031,-0.04135238824518306
2019-01-03,85.37617492675781,-0.012086864539576747
2019-01-04,87.27363586425781,0.022224712446157202
2019-01-07,88.11695098876953,0.009662885201934035
2019-01-08,89.62152099609375,0.017074694374252353
2019-01-09,89.58317565917969,-0.0004278585822676817
2019-01-10,90.63733673095705,0.011767400117494553
2019-01-11,90.78106689453124,0.0015857721415715176
2019-01-14,90.04317474365234,-0.008128260397469944
2019-01-15,90.85771942138672,0.009046156802593242
2019-01-16,90.76190948486328,-0.0010545051882612233
2019-01-17,91.93106079101562,0.012881519491911186
2019-01-18,93.61769104003906,0.01834668538044615
2019-01-22,92.4197998046875,-0.012795564834420459
2019-01-23,93.32061004638672,0.009746939980425307
2019-01-24,93.08102416992188,-0.002567341515938959
2019-01-25,93.33018493652344,0.002676815911981212
2019-01-28,93.79974365234376,0.005031155956025213
2019-01-29,94.18441772460938,0.004101014110351464
2019-01-30,94.2036590576172,0.0002042942290527705
2019-01-31,95.31916809082033,0.011841461832399203
2019-02-01,95.73269653320312,0.00433835555497919
2019-02-04,96.02118682861328,0.00301349806134521
2019-02-05,97.19441223144533,0.012218401392248168
2019-02-06,97.69446563720705,0.005144878129114572
2019-02-07,98.04065704345705,0.003543613284457736
2019-02-08,97.50212860107422,-0.005492909356412445
2019-02-11,97.8002471923828,0.003057559825471179
2019-02-12,98.39647674560548,0.006096401290784481
2019-02-13,98.85807037353516,0.004691160122766158
2019-02-14,97.8675537109375,-0.010019583215158723
2019-02-15,98.0310287475586,0.0016703701116709269
2019-02-19,97.65599822998048,-0.0038256307453822247
2019-02-20,98.3387680053711,0.0069915805251683505
2019-02-21,99.16580963134766,0.008410127996838268
2019-02-22,98.13682556152344,-0.010376399624522858
2019-02-25,97.66560363769533,-0.0048016829679568
2019-02-26,97.4251937866211,-0.00246156110360074
2019-02-27,97.52137756347656,0.0009872577422440632
2019-02-28,97.82910919189452,0.0031555299577024076
2019-03-01,96.94436645507812,-0.009043757467738445
2019-03-04,97.71369934082033,0.007935818386091587
2019-03-05,97.5790557861328,-0.0013779393840970267
2019-03-06,96.63664245605467,-0.00965794680513865
2019-03-07,96.05003356933594,-0.0060702531856432485
2019-03-08,96.6174087524414,0.005907079487857736
2019-03-11,98.10797119140624,0.015427472732000513
2019-03-12,98.3387680053711,0.002352477695360511
2019-03-13,98.3580093383789,0.00019566375904522815
2019-03-14,98.9446029663086,0.005963862342024839
2019-03-15,99.09848022460938,0.0015551859695992487
2019-03-18,99.73316955566406,0.00640463233761146
2019-03-19,99.62738800048828,-0.0010606456773314399
2019-03-20,99.96397399902344,0.00337844848982205
2019-03-21,101.49300384521484,0.01529580893018867
2019-03-22,99.84855651855467,-0.016202568298875897
2019-03-25,100.50250244140624,0.0065493778343208575
2019-03-26,101.39684295654295,0.008898689021779704
2019-03-27,101.4737548828125,0.0007585238753686774
2019-03-28,102.11808013916016,0.00634967393383401
2019-03-29,102.31038665771484,0.0018831779670418491
2019-04-01,103.5797882080078,0.012407357569078625
2019-04-02,103.10856628417967,-0.004549361723754641
2019-04-03,103.34899139404295,0.0023317665886328776
2019-04-04,103.95482635498048,0.0058620307055308185
2019-04-05,104.57028198242188,0.005920414174323874
2019-04-08,104.81069946289062,0.0022990994755962557
2019-04-09,104.01252746582033,-0.007615367526031092
2019-04-10,104.8587875366211,0.008136136015720385
2019-04-11,105.45500946044922,0.0056859509616196124
2019-04-12,106.08009338378906,0.0059274938814004585
2019-04-15,105.67618560791016,-0.0038075737209016802
2019-04-16,105.4165496826172,-0.00245690099239837
2019-04-17,103.57015228271484,-0.017515251689240396
2019-04-18,104.06060791015624,0.004735491998723695
2019-04-22,104.75299835205078,0.006653722823648511
2019-04-23,105.83969116210938,0.010373858764466837
2019-04-24,105.72427368164062,-0.0010904933603025357
2019-04-25,105.2530746459961,-0.00445686708677151
2019-04-26,107.14749908447266,0.017998756281925266
2019-04-29,107.05135345458984,-0.000897320336025853
2019-04-30,107.32150268554688,0.0025235480191441173
2019-05-01,108.836181640625,0.014113471365716501
2019-05-02,109.0195083618164,0.0016844280865782046
2019-05-03,109.83954620361328,0.007521936707651555
2019-05-06,110.96833801269533,0.010276734091650086
2019-05-07,109.955322265625,-0.009128871939619643
2019-05-08,109.974609375,0.00017540860212661435
2019-05-09,109.0195083618164,-0.008684741128989315
2019-05-10,109.59835052490234,0.005309528283367948
2019-05-13,108.82654571533205,-0.007042120669461527
2019-05-14,109.0001983642578,0.0015956828160290648
2019-05-15,109.25104522705078,0.002301343176960957
2019-05-16,110.09040069580078,0.00768281408205862
2019-05-17,109.77202606201172,-0.0028919381869522143
2019-05-20,109.05809020996094,-0.006503805000806606
2019-05-21,109.48260498046876,0.003892556431994487
2019-05-22,109.16421508789062,-0.0029081322337456417
2019-05-23,108.98090362548828,-0.0016792266793175248
2019-05-24,108.95196533203124,-0.00026553545157315117
2019-05-28,108.92302703857422,-0.0002656059793765264
2019-05-29,108.73006439208984,-0.001771550531881938
2019-05-30,109.51152801513672,0.00718718992227263
2019-05-31,109.27999114990234,-0.0021142693324703865
2019-06-03,110.01322174072266,0.006709650898621744
2019-06-04,111.64368438720705,0.014820606293369343
2019-06-05,113.0040054321289,0.012184487213839468
2019-06-06,115.99481201171876,0.026466376728444096
2019-06-07,117.6252899169922,0.014056472673180442
2019-06-10,118.87948608398438,0.01066264038862097
2019-06-11,118.26202392578124,-0.0051940177278939625
2019-06-12,117.33585357666016,-0.007831511066496932
2019-06-13,116.46755981445312,-0.007400071979190459
2019-06-14,115.85974884033205,-0.005218714765634291
2019-06-17,115.93693542480467,0.0006662070757550431
2019-06-18,115.2808609008789,-0.005658891375055264
2019-06-19,115.20369720458984,-0.0006693539212498933
2019-06-20,115.58960723876952,0.0033498059831738036
2019-06-21,115.1747589111328,-0.003588976012175338
2019-06-24,114.5959014892578,-0.005025905218708937
2019-06-25,116.79556274414062,0.019194938268268125
2019-06-26,115.03968048095705,-0.015033809692155176
2019-06-27,117.26832580566406,0.0193728400095472
2019-06-28,119.96005249023438,0.02295356965384676
2019-07-01,119.89250946044922,-0.0005630460172618701
2019-07-02,119.18822479248048,-0.005874300831121282
2019-07-03,121.48439025878906,0.01926503620895814
2019-07-05,120.22052764892578,-0.010403497989914356
2019-07-08,119.62234497070312,-0.00497571163528332
2019-07-09,119.69955444335938,0.0006454435638689748
2019-07-10,119.22681427001952,-0.0039493895824278535
2019-07-11,119.65131378173828,0.0035604365873382893
2019-07-12,119.06280517578124,-0.004918530247236319
2019-07-15,118.5900421142578,-0.003970703200092296
2019-07-16,118.82160186767578,0.0019526070594939604
2019-07-17,119.1785659790039,0.003004202146051238
2019-07-18,119.97933197021484,0.006719043685690984
2019-07-19,119.05314636230467,-0.007719542963783965
2019-07-22,118.82160186767578,-0.0019448834550265248
2019-07-23,120.1240692138672,0.010961536671100447
2019-07-24,118.94703674316406,-0.009798473181986234
2019-07-25,118.5900421142578,-0.00300129064734167
2019-07-26,120.10474395751952,0.012772588796303497
2019-07-29,120.53889465332033,0.0036147672564403877
2019-07-30,119.79386901855467,-0.00618079033251806
2019-07-31,117.0943832397461,-0.022534423513698054
2019-08-01,113.74661254882812,-0.028590361025802036
2019-08-02,114.19170379638672,0.003913006616944603
2019-08-05,113.2821807861328,-0.0079648781830568
2019-08-06,115.83656311035156,0.0225488448976916
2019-08-07,117.71361541748048,0.016204316294680998
2019-08-08,118.8843765258789,0.009945842749338851
2019-08-09,117.1524429321289,-0.014568218670625632
2019-08-12,116.12682342529295,-0.008754572087157686
2019-08-13,117.28789520263672,0.009998308255548816
2019-08-14,115.22698211669922,-0.01757140481016295
2019-08-15,114.49163055419922,-0.006381765355576663
2019-08-16,116.34935760498048,0.016225876439953657
2019-08-19,116.32032775878906,-0.00024950585709271333
2019-08-20,115.02378845214844,-0.01114628312713517
2019-08-21,115.4592056274414,0.0037854532627754622
2019-08-22,116.62995147705078,0.010139909098171751
2019-08-23,116.35902404785156,-0.0023229661486443565
2019-08-26,117.06535339355467,0.006070258422008035
2019-08-27,117.55880737304688,0.004215200870177904
2019-08-28,117.90713500976562,0.002963007574697585
2019-08-29,117.7426528930664,-0.0013950141073786337
2019-08-30,118.25545501708984,0.00435527917388745
2019-09-03,115.76880645751952,-0.02102777042472137
2019-09-04,117.98454284667967,0.01913932135055063
2019-09-05,117.26853942871094,-0.006068620521750723
2019-09-06,116.95891571044922,-0.0026402965345189155
2019-09-09,115.23666381835938,-0.014725272388413368
2019-09-10,115.24633026123048,8.38833974432518e-05
2019-09-11,114.78189849853516,-0.004029905001249001
2019-09-12,114.22071075439452,-0.004889165900560544
2019-09-13,114.5593719482422,0.0029649718655304635
2019-09-16,112.70165252685548,-0.01621621513625293
2019-09-17,113.21444702148438,0.004550017529749262
2019-09-18,114.46261596679688,0.011024820401901891
2019-09-19,114.02721405029295,-0.0038038787845825484
2019-09-20,114.22071075439452,0.0016969344179207368
2019-09-23,114.26909637451172,0.0004236151202143823
2019-09-24,114.66580963134766,0.0034717458124962075
2019-09-25,115.25601196289062,0.00514715182703962
2019-09-26,115.06249237060548,-0.0016790411969784813
2019-09-27,114.82059478759766,-0.0021023148206167352
2019-09-30,114.60774993896484,-0.0018537166527184956
2019-10-01,113.8530502319336,-0.006585066956058094
2019-10-02,111.6082992553711,-0.019716212890121487
2019-10-03,111.25997924804688,-0.0031209149288013993
2019-10-04,113.52406311035156,0.02034949024443966
2019-10-07,112.77906036376952,-0.0065625095347218165
2019-10-08,111.0567855834961,-0.015271228317723318
2019-10-09,112.70165252685548,0.014811044050277555
2019-10-10,112.53716278076172,-0.0014595149441537503
2019-10-11,112.5565185546875,0.0001719945078364482
2019-10-14,112.0920867919922,-0.0041262093804869115
2019-10-15,111.44381713867188,-0.00578336680022129
2019-10-16,111.7244110107422,0.0025178056465993137
2019-10-17,112.7693862915039,0.009353150948016475
2019-10-18,113.95948028564452,0.01055334282891529
2019-10-21,114.0755844116211,0.0010188193705829018
2019-10-22,112.87581634521484,-0.010517308086514854
2019-10-23,113.56278228759766,0.006086032992947077
2019-10-24,113.53375244140624,-0.0002556281697810858
2019-10-25,114.05624389648438,0.004602080384402019
2019-10-28,114.3658676147461,0.002714658204444609
2019-10-29,115.01610565185548,0.005685595280051414
2019-10-30,115.7342758178711,0.00624408348678962
2019-10-31,114.66670989990234,-0.009224284771511937
2019-11-01,107.52369689941406,-0.06229369454067124
2019-11-04,105.46619415283205,-0.019135342309767878
2019-11-05,105.45650482177734,-9.187143930367014e-05
2019-11-06,106.26203155517578,0.007638473650912081
2019-11-07,106.17467498779295,-0.0008220863661679845
2019-11-08,105.78648376464844,-0.003656156453402337
2019-11-11,105.37884521484376,-0.0038534086331064588
2019-11-12,105.02947235107422,-0.00331539848493545
2019-11-13,106.38819885253906,0.01293662122687933
2019-11-14,107.21314239501952,0.007754088812274018
2019-11-15,106.71817016601562,-0.004616712260705924
2019-11-18,107.0869598388672,0.0034557345977528353
2019-11-19,107.24225616455078,0.0014501889484699326
2019-11-20,107.43635559082033,0.0018099155427289126
2019-11-21,108.0186767578125,0.0054201500394335245
2019-11-22,106.87346649169922,-0.010601965331244911
2019-11-25,107.6789779663086,0.007537057616372245
2019-11-26,109.24152374267578,0.014511149770163101
2019-11-27,109.50355529785156,0.0023986442718706424
2019-11-29,108.81449127197266,-0.006292617842449388
2019-12-02,108.7077407836914,-0.0009810319106711152
2019-12-03,109.38710021972656,0.006249411781879877
2019-12-04,108.48451232910156,-0.008251319294614867
2019-12-05,108.64949798583984,0.001520822218730844
2019-12-06,108.77566528320312,0.0011612322164591404
2019-12-09,109.30945587158205,0.00490726107709083
2019-12-10,108.63978576660156,-0.006126369394494291
2019-12-11,109.251220703125,0.005628094092867908
2019-12-12,110.81375122070312,0.01430217902849873
2019-12-13,110.60994720458984,-0.0018391581718714134
2019-12-16,110.94963073730467,0.003071003479339307
2019-12-17,110.00822448730467,-0.008484987680842049
2019-12-18,109.74618530273438,-0.0023819963079263484
2019-12-19,109.92088317871094,0.0015918355202475531
2019-12-20,111.57076263427734,0.015009699775464957
2019-12-23,111.96868896484376,0.0035665825093516013
2019-12-24,111.34754943847656,-0.005547439486071171
2019-12-26,111.43489837646484,0.0007844711305169394
2019-12-27,111.6290054321289,0.0017418874920880345
2019-12-30,112.34718322753906,0.006433612775013087
2019-12-31,112.21131134033205,-0.001209392913143481
2020-01-02,110.32850646972656,-0.01677910050346898
2020-01-03,110.67788696289062,0.0031667291105761386
2020-01-06,110.6875991821289,8.775212018230505e-05
2020-01-07,109.58118438720705,-0.009995833346257088
2020-01-08,109.88206481933594,0.0027457307913896223
2020-01-09,111.27961730957033,0.012718658795975335
2020-01-10,112.37630462646484,0.00985523983106118
2020-01-13,112.7742156982422,0.003540880553956738
2020-01-14,112.70626831054688,-0.0006025081821641187
2020-01-15,113.2691650390625,0.004994369319057279
2020-01-16,114.7346649169922,0.012938206769903315
2020-01-17,113.8611831665039,-0.007613058800670536
2020-01-21,112.22101593017578,-0.014404972710758135
2020-01-22,112.25982666015624,0.000345841905446731
2020-01-23,113.9097137451172,0.014697039306462267
2020-01-24,113.66707611083984,-0.0021300872972105367
2020-01-27,113.05564880371094,-0.0053791064928307986
2020-01-28,112.89989471435548,-0.0013776763125377123
2020-01-29,112.87068939208984,-0.0002586833436782898
2020-01-30,113.45480346679688,0.005175073155422538
2020-01-31,112.45207214355467,-0.008838156628032556
2020-02-03,114.13626861572266,0.01497701589720779
2020-02-04,113.85394287109376,-0.0024735848477702715
2020-02-05,114.74958801269533,0.00786661505974906
2020-02-06,114.41859436035156,-0.002884486629330163
2020-02-07,113.6105728149414,-0.007061977556422017
2020-02-10,112.73439025878906,-0.007712156839307038
2020-02-11,112.977783203125,0.0021589946402087445
2020-02-12,111.67325592041016,-0.011546759422331854
2020-02-13,113.12379455566406,0.012989131760317907
2020-02-14,113.58135223388672,0.0040447518580850605
2020-02-18,112.20867919921876,-0.012085373238393426
2020-02-19,111.9653091430664,-0.0021689058091510782
2020-02-20,111.88742065429688,-0.0006956484054361223
2020-02-21,109.01551818847656,-0.02566778686134652
2020-02-24,106.31884002685548,-0.024736644896360516
2020-02-25,104.10894012451172,-0.020785590792615438
2020-02-26,101.90877532958984,-0.021133293570086642
2020-02-27,99.68913269042967,-0.021780682104965754
2020-02-28,98.39434051513672,-0.012988298125872433
2020-03-02,100.83789825439452,0.024834332203099496
2020-03-03,100.03961181640624,-0.007916531897306678
2020-03-04,104.595703125,0.045542872726807015
2020-03-05,101.22731018066406,-0.032203932319384565
2020-03-06,104.45941925048828,0.031929220128992464
2020-03-09,98.7642822265625,-0.05452009081410969
2020-03-10,101.23705291748048,0.025037094738819876
2020-03-11,96.45703125,-0.047216128183588446
2020-03-12,91.9009246826172,-0.04723457179160073
2020-03-13,93.83824157714844,0.02108049403443779
2020-03-16,85.55353546142578,-0.08828709891064446
2020-03-17,93.89664459228516,0.09751916254379811
2020-03-18,94.18870544433594,0.003110450360808592
2020-03-19,96.26231384277344,0.02201546765777529
2020-03-20,90.06095123291016,-0.06442149957035159
2020-03-23,81.70809936523438,-0.09274665383085001
2020-03-24,85.728759765625,0.049207611382787286
2020-03-25,87.79264068603516,0.024074545415711412
2020-03-26,93.65326690673828,0.06675532453411392
2020-03-27,91.51151275634766,-0.02286897426144696
2020-03-30,97.81996154785156,0.06893612182218378
2020-03-31,96.90484619140624,-0.00935509830473269
2020-04-01,93.66299438476562,-0.033453969889568946
2020-04-02,93.6045913696289,-0.0006235441811394127
2020-04-03,91.6964874267578,-0.020384725951490212
2020-04-06,98.0925521850586,0.06975256018841103
2020-04-07,98.4430160522461,0.0035727877334288394
2020-04-08,101.3538589477539,0.02956881058949845
2020-04-09,104.43019104003906,0.03035239234325493
2020-04-13,99.64044952392578,-0.04586548648825961
2020-04-14,101.26624298095705,0.016316600986839846
2020-04-15,98.25804901123048,-0.029705792188738034
2020-04-16,99.1536865234375,0.009115156684055936
2020-04-17,100.21484375,0.010702145969244015
2020-04-20,104.10894012451172,0.03885748087604757
2020-04-21,103.31065368652344,-0.007667799105759321
2020-04-22,103.48589324951172,0.0016962390299068986
2020-04-23,102.23976135253906,-0.0120415629400632
2020-04-24,101.36359405517578,-0.008569731440805306
2020-04-27,109.5996322631836,0.08125242879139272
2020-04-28,108.58391571044922,-0.009267517889980814
2020-04-29,107.50960540771484,-0.00989382539490602
2020-04-30,104.57966613769533,-0.027252813912841956
2020-05-01,103.66161346435548,-0.008778500709029635
2020-05-04,104.3159637451172,0.0063123682807302295
2020-05-05,103.09514617919922,-0.011703075177456945
2020-05-06,102.41148376464844,-0.006631373443735544
2020-05-07,103.00724029541016,0.005817282484948949
2020-05-08,105.01914978027344,0.019531728828899864
2020-05-11,103.82762908935548,-0.01134574687960166
2020-05-12,101.52274322509766,-0.02219915724237731
2020-05-13,100.0284652709961,-0.01471865226088731
2020-05-14,100.0675277709961,0.00039051383917731997
2020-05-15,99.12994384765624,-0.009369512210649522
2020-05-18,101.71807098388672,0.026108429358216334
2020-05-19,101.3078842163086,-0.0040325850029451216
2020-05-20,101.97200775146484,0.006555497040469538
2020-05-21,102.6361312866211,0.006512802383717986
2020-05-22,102.6458969116211,9.514802319210425e-05
2020-05-26,106.99198150634766,0.04234055841967632
2020-05-27,109.92192840576172,0.027384733492763935
2020-05-28,108.99410247802734,-0.008440771929595692
2020-05-29,108.78902435302734,-0.0018815524907995762
2020-06-01,108.8183135986328,0.0002692297847106673
2020-06-02,109.45314025878906,0.0058338218923128515
2020-06-03,110.63488006591795,0.010796764755536481
2020-06-04,109.52149200439452,-0.010063626054098496
2020-06-05,110.7520751953125,0.011235997322503577
2020-06-08,110.92788696289062,0.0015874354251879108
2020-06-09,109.84380340576172,-0.009772867642305005
2020-06-10,109.03317260742188,-0.0073798500525822375
2020-06-11,101.81574249267578,-0.06619480972761127
2020-06-12,102.89982604980467,0.010647504311102729
2020-06-15,102.94866180419922,0.0004745951112774538
2020-06-16,104.88241577148438,0.018783672690792397
2020-06-17,104.41362762451172,-0.004469654360307995
2020-06-18,104.49175262451172,0.0007482260867417434
2020-06-19,105.0875015258789,0.005701396391617486
2020-06-22,105.03868865966795,-0.00046449735222731103
2020-06-23,104.9312515258789,-0.0010228339211006965
2020-06-24,103.4662628173828,-0.013961414613784529
2020-06-25,105.0875015258789,0.01566924970855066
2020-06-26,105.2047119140625,0.0011153599284565718
2020-06-29,106.69898223876952,0.014203454365500523
2020-06-30,109.36524963378906,0.024988686293679896
2020-07-01,109.85357666015624,0.004465102287996903
2020-07-02,112.28541564941406,0.022137094332221663
2020-07-06,112.5686492919922,0.0025224437291346824
2020-07-07,112.46121215820312,-0.0009544143459552235
2020-07-08,110.29306030273438,-0.01927910800408883
2020-07-09,111.10368347167967,0.007349720523850634
2020-07-10,112.2658920288086,0.010460576290660661
2020-07-13,110.7813720703125,-0.01322325001537561
2020-07-14,113.59412384033205,0.02539011493948906
2020-07-15,115.14700317382812,0.013670419569226988
2020-07-16,114.5024185180664,-0.005597928196087287
2020-07-17,116.61198425292967,0.01842376573496063
2020-07-20,116.50454711914062,-0.0009213215475007974
2020-07-21,115.42047882080078,-0.009304944100003598
2020-07-22,115.73300170898438,0.002707690102973892
2020-07-23,115.67439270019533,-0.0005064156975417289
2020-07-24,116.0748291015625,0.0034617549486948285
2020-07-27,117.05147552490234,0.008413938068220661
2020-07-28,115.64085388183594,-0.012051293131852048
2020-07-29,116.38534545898438,0.00643796333352209
2020-07-30,115.50373077392578,-0.0075749629953995035
2020-07-31,112.84901428222656,-0.02298381596777399
2020-08-03,116.23841857910156,0.030034859572617645
2020-08-04,116.19923400878906,-0.0003371051567243599
2020-08-05,115.9445343017578,-0.0021919224270617876
2020-08-06,115.25881958007812,-0.005914161679195895
2020-08-07,116.81637573242188,0.013513552871861734
2020-08-10,114.6122817993164,-0.0188680218786631
2020-08-11,114.35759735107422,-0.0022221392353756197
2020-08-12,115.68003845214844,0.01156408609228099
2020-08-13,116.1012725830078,0.0036413726732431595
2020-08-14,116.07189178466795,-0.000253061811349542
2020-08-17,115.83678436279295,-0.0020255327819689306
2020-08-18,115.4743423461914,-0.003128902607192563
2020-08-19,115.28822326660156,-0.0016117786497701347
2020-08-20,115.15106964111328,-0.0011896585930647463
2020-08-21,115.39596557617188,0.002126736085229952
2020-08-24,116.67923736572266,0.011120594928456962
2020-08-25,115.7192153930664,-0.008227873221755222
2020-08-26,116.17963409423828,0.003978757543489753
2020-08-27,117.6000518798828,0.012226048022258018
2020-08-28,115.7192153930664,-0.015993500485335543
2020-08-31,115.97393798828124,0.002201212601983249
2020-09-01,117.06126403808594,0.009375606870524411
2020-09-02,119.76495361328124,0.023096364091162114
2020-09-03,116.73800659179688,-0.025274063322884177
2020-09-04,116.29718780517578,-0.0037761376906367827
2020-09-08,113.69147491455078,-0.02240563972183196
2020-09-09,115.484130859375,0.01576772529489623
2020-09-10,114.79841613769533,-0.005937739813920095
2020-09-11,115.9445343017578,0.009983745443732817
2020-09-14,116.64984893798828,0.006083207289399484
2020-09-15,115.91515350341795,-0.006298297351082671
2020-09-16,115.3665771484375,-0.004732568075875299
2020-09-17,113.59351348876952,-0.015368954366971055
2020-09-18,112.6922836303711,-0.007933814446962395
2020-09-21,111.1347427368164,-0.013821184941671727
2020-09-22,111.99677276611328,0.00775662054968973
2020-09-23,109.85147094726562,-0.01915503246979955
2020-09-24,109.96903228759766,0.0010701844892770929
2020-09-25,109.8122787475586,-0.00142543347684565
2020-09-28,110.06697845458984,0.002319410087252338
2020-09-29,110.32169342041016,0.0023141815047225123
2020-09-30,110.88983917236328,0.0051499005711239665
2020-10-01,111.37963104248048,0.0044169229008970134
2020-10-02,110.54698181152344,-0.007475776523621858
2020-10-05,112.21229553222656,0.01506430744117826
2020-10-06,112.22207641601562,8.716410035702893e-05
2020-10-07,112.6335220336914,0.003666351851756122
2020-10-08,114.14208221435548,0.013393527552240103
2020-10-09,114.42616271972656,0.00248883233825703
2020-10-12,115.63106536865234,0.010529957662541278
2020-10-13,115.16085815429688,-0.004066443674598741
2020-10-14,114.063720703125,-0.009526999613895581
2020-10-15,113.96575164794922,-0.0008588975931336229
2020-10-16,113.97555541992188,8.602384339928548e-05
2020-10-19,112.80004119873048,-0.010313739791487975
2020-10-20,114.57310485839844,0.01571864372411169
2020-10-21,115.33718872070312,0.006668963569146813
2020-10-22,115.89556121826172,0.004841218203356146
2020-10-23,115.93474578857422,0.0003381024251540854
2020-10-26,115.06289672851562,-0.007520170541871485
2020-10-27,113.6381378173828,-0.012382435621227761
2020-10-28,110.38570404052734,-0.0286209703830429
2020-10-29,110.97528076171876,0.0053410604780395055
2020-10-30,112.1052703857422,0.010182354270855232
2020-11-02,116.13394927978516,0.0359365699773142
2020-11-03,117.4801025390625,0.01159138449717445
2020-11-04,116.9789810180664,-0.0042655863432657926
2020-11-05,120.77183532714844,0.03242338303918246
2020-11-06,121.4498291015625,0.0056138401190766185
2020-11-09,121.02731323242188,-0.003478933418566532
2020-11-10,125.39007568359376,0.03604775099645163
2020-11-11,123.0907745361328,-0.018337186056598065
2020-11-12,122.1081771850586,-0.00798270507905341
2020-11-13,122.89424896240234,0.006437503166986325
2020-11-16,124.65311431884766,0.014312023315130151
2020-11-17,125.14441680908205,0.003941357525795164
2020-11-18,124.17163848876952,-0.0077732458635896284
2020-11-19,125.01668548583984,0.006805475125841731
2020-11-20,125.58658599853516,0.004558595602503601
2020-11-23,124.65311431884766,-0.007432893188914158
2020-11-24,125.65536499023438,0.008040317940417374
2020-11-25,124.09303283691406,-0.012433469541405784
2020-11-27,125.02650451660156,0.007522353659566772
2020-11-30,124.12252044677734,-0.007230339465374547
2020-12-01,125.5964126586914,0.011874494705785832
2020-12-02,124.06355285644533,-0.012204646373233818
2020-12-03,123.68034362792967,-0.003088813915873123
2020-12-04,125.45885467529295,0.014379900598542994
2020-12-07,126.39234161376952,0.007440582339863999
2020-12-08,126.94258880615234,0.004353485229859011
2020-12-09,127.27668762207033,0.002631889100892515
2020-12-10,128.2003173828125,0.007256865165164772
2020-12-11,128.1806640625,-0.00015330165099214366
2020-12-14,126.17615509033205,-0.015638154060354736
2020-12-15,127.99397277832033,0.014406982735263085
2020-12-16,128.81936645507812,0.006448691753535574
2020-12-17,130.82386779785156,0.015560558927856905
2020-12-18,131.76718139648438,0.007210561914362756
2020-12-21,132.54344177246094,0.00589115110264693
2020-12-22,132.16021728515625,-0.0028913123288482057
2020-12-23,132.18968200683594,0.00022294698272262714
2020-12-24,133.33934020996094,0.008697034334839815
2020-12-28,133.31967163085938,-0.00014750769780769168
2020-12-29,132.9561309814453,-0.0027268342695940806
2020-12-30,134.01731872558594,0.007981487850971858
2020-12-31,134.50865173339844,0.0036661904034847037
2021-01-04,131.6688995361328,-0.02111204120084509
2021-01-05,131.37411499023438,-0.002238832001611346
2021-01-06,135.32421875,0.03006759558425376
2021-01-07,137.26976013183594,0.014376889811794635
2021-01-08,136.65072631835938,-0.004509615321553917
2021-01-11,136.3755645751953,-0.0020136134697374963
2021-01-12,135.7467041015625,-0.004611240111758175
2021-01-13,136.1692352294922,0.0031126437339765722
2021-01-14,137.02410888671875,0.006278023488828444
2021-01-15,136.41488647460938,-0.004446096508556985
2021-01-19,134.8721923828125,-0.01130883975836472
2021-01-20,138.17373657226562,0.024479057774061008
2021-01-21,135.7073974609375,-0.017849550663618485
2021-01-22,135.78602600097656,0.000579397597405773
2021-01-25,137.1420135498047,0.009986208365935667
2021-01-26,136.787353515625,-0.002586078656712232
2021-01-27,131.2705535888672,-0.04033121326620037
2021-01-28,133.2408447265625,0.015009391549198225
2021-01-29,130.99468994140625,-0.016857854584799603
2021-02-01,132.0980682373047,0.008423076510902572
2021-02-02,134.90573120117188,0.021254383211898542
2021-02-03,134.53138732910156,-0.0027748552173227914
2021-02-04,135.949951171875,0.010544482376467545
2021-02-05,138.57046508789062,0.01927557820673753
2021-02-08,139.870849609375,0.009384283444957564
2021-02-09,140.05804443359375,0.001338340510131486
2021-02-10,141.1219940185547,0.0075964903641461134
2021-02-11,140.84613037109375,-0.0019547884748898348
2021-02-12,142.4814910888672,0.011610973716243977
2021-02-16,141.466796875,-0.007121586152087023
2021-02-17,141.0825958251953,-0.002715839039913903
2021-02-18,138.8955841064453,-0.015501640765525515
2021-02-19,130.27554321289062,-0.06206130273334354
2021-02-22,127.18220520019533,-0.023744579653299125
2021-02-23,126.3743667602539,-0.006351819727215879
2021-02-24,126.84723663330078,0.0037418179427475273
2021-02-25,128.36436462402344,0.011960276242426016
2021-02-26,128.13778686523438,-0.0017651141689728478
2021-03-01,128.659912109375,0.004074717200241329
2021-03-02,128.41363525390625,-0.001914169312189351
2021-03-03,129.1032257080078,0.0053700718988141105
2021-03-04,128.46287536621094,-0.0049599871597720835
2021-03-05,132.0980682373047,0.028297614082908096
2021-03-08,135.66429138183594,0.02699678498041913
2021-03-09,135.6446075439453,-0.00014509225449177432
2021-03-10,137.3094940185547,0.012273886185044214
2021-03-11,137.3094940185547,0.0
2021-03-12,138.67884826660156,0.009972757221447637
2021-03-15,140.0186309814453,0.009661045873903484
2021-03-16,138.412841796875,-0.011468396550621263
2021-03-17,139.18125915527344,0.005551633420879387
2021-03-18,139.40782165527344,0.001627823324598987
2021-03-19,137.24050903320312,-0.015546564004347063
2021-03-22,139.4866485595703,0.01636644706574031
2021-03-23,138.67884826660156,-0.005791237378707015
2021-03-24,139.73294067382812,0.007600960206996632
2021-03-25,140.35357666015625,0.004441586810778109
2021-03-26,142.66868591308594,0.01649483617033387
2021-03-29,142.61940002441406,-0.0003454569470269231
2021-03-30,140.9545135498047,-0.011673632579609627
2021-03-31,139.56546020507812,-0.00985462125152703
2021-04-01,141.73277282714844,0.015529004231316534
2021-04-05,142.54058837890625,0.005699567825029339
2021-04-06,143.80157470703125,0.008846507106965218
2021-04-07,141.45692443847656,-0.016304760732498758
2021-04-08,141.54559326171875,0.0006268256120665061
2021-04-09,143.0430145263672,0.010579073711462605
2021-04-12,144.03802490234375,0.006956022139712026
2021-04-13,144.15625,0.0008207908830768496
2021-04-14,143.64398193359375,-0.0035535612670712924
2021-04-15,145.0133056640625,0.009532760871957535
2021-04-16,145.88023376464844,0.005978265901987356
2021-04-19,147.4860382080078,0.011007690362973
2021-04-20,148.1854705810547,0.004742363287706164
2021-04-21,149.6829071044922,0.010105150778722427
2021-04-22,147.8406982421875,-0.012307409696543758
2021-04-23,149.20018005371094,0.009195585706017084
2021-04-26,148.67803955078125,-0.0034995970027765777
2021-04-27,149.76443481445312,0.0073070324773876205
2021-04-28,149.25088500976562,-0.003429050463975347
2021-04-29,149.0533447265625,-0.0013235451380418928
2021-04-30,148.9447021484375,-0.0007288838658690011
2021-05-03,150.5742950439453,0.010940925538148738
2021-05-04,153.1026611328125,0.016791485479837664
2021-05-05,152.27301025390625,-0.005418918735753064
2021-05-06,154.58409118652344,0.015177219710594825
2021-05-07,155.61122131347656,0.006644474984905058
2021-05-10,153.55694580078125,-0.013201332753227324
2021-05-11,152.08538818359375,-0.009583139398309237
2021-05-12,149.7348175048828,-0.015455598376573731
2021-05-13,152.70758056640625,0.019853519115061502
2021-05-14,151.6409454345703,-0.006984821106324146
2021-05-17,151.21627807617188,-0.0028004794957023904
2021-05-18,149.0533447265625,-0.01430357483418443
2021-05-19,147.69039916992188,-0.00914401189145364
2021-05-20,147.88795471191406,0.001337632934182098
2021-05-21,147.77931213378906,-0.0007346276330389978
2021-05-24,147.41387939453125,-0.0024728274477754386
2021-05-25,145.90280151367188,-0.010250580793788044
2021-05-26,146.0312042236328,0.0008800565076805267
2021-05-27,144.95469665527344,-0.007371763960193123
2021-05-28,145.4879913330078,0.0036790437980953605
2021-06-01,145.0633087158203,-0.002919021792083476
2021-06-02,143.85841369628906,-0.008305994328942523
2021-06-03,143.60162353515625,-0.0017850201078606354
2021-06-04,143.7596435546875,0.0011004055221741638
2021-06-07,140.75726318359375,-0.020884723256507032
2021-06-08,141.01402282714844,0.0018241306895814269
2021-06-09,140.41156005859375,-0.004272360694887567
2021-06-10,143.19668579101562,0.019835444683184544
2021-06-11,144.0263214111328,0.005793678921647505
2021-06-14,141.7152557373047,-0.016046134145376367
2021-06-15,142.5448760986328,0.005854135865696719
2021-06-16,140.85598754882812,-0.011848118263023899
2021-06-17,139.75973510742188,-0.007782789077576346
2021-06-18,138.3671875,-0.009963868394223363
2021-06-21,139.82888793945312,0.010563923903224026
2021-06-22,139.8782501220703,0.0003530184881292975
2021-06-23,138.43630981445312,-0.010308538363604236
2021-06-24,138.44619750976562,7.142414678451559e-05
2021-06-25,139.1770477294922,0.005278947583049476
2021-06-28,138.96963500976562,-0.001490279633820757
2021-06-29,138.54495239257812,-0.003055938206628084
2021-06-30,139.0980224609375,0.003991990027844672
2021-07-01,139.3745574951172,0.0019880587034035724
2021-07-02,138.67335510253906,-0.005031064529856466
2021-07-06,138.3177947998047,-0.0025640131261803756
2021-07-07,139.2758026123047,0.006926135671021738
2021-07-08,137.5474395751953,-0.012409643345732801
2021-07-09,139.43380737304688,0.013714306886972727
2021-07-12,138.6832275390625,-0.005383054856819891
2021-07-13,136.78697204589844,-0.013673286429896181
2021-07-14,136.7277069091797,-0.0004332659450847487
2021-07-15,136.84622192382812,0.0008667958918315843
2021-07-16,137.32028198242188,0.003464180829614971
2021-07-19,135.4339141845703,-0.013736993331349479
2021-07-20,135.3252716064453,-0.0008021814829699547
2021-07-21,134.3771514892578,-0.0070062310308516285
2021-07-22,133.00433349609375,-0.010216156377401697
2021-07-23,134.55491638183594,0.011658138084558844
2021-07-26,135.02899169921875,0.003523284991218789
2021-07-27,135.0684814453125,0.0002924538322979231
2021-07-28,135.94747924804688,0.0065077936268223
2021-07-29,137.33016967773438,0.010170769162734405
2021-07-30,127.32544708251952,-0.07285160004311086
2021-08-02,128.30322265625,0.007679341373895143
2021-08-03,127.4117431640625,-0.006948223697981093
2021-08-04,125.56934356689452,-0.014460202422594604
2021-08-05,126.29244232177734,0.005758561240686966
2021-08-06,127.21361541748048,0.0072939684969912655
2021-08-09,128.84800720214844,0.012847616816048513
2021-08-10,127.97633361816406,-0.006765130504632566
2021-08-11,130.38333129882812,0.01880814688632726
2021-08-12,131.42337036132812,0.00797677933321328
2021-08-13,131.7898712158203,0.0027887038164107203
2021-08-16,131.62149047851562,-0.001277645510624592
2021-08-17,131.750244140625,0.0009782115492027454
2021-08-18,130.79934692382812,-0.007217422806305551
2021-08-19,131.15594482421875,0.00272629725436091
2021-08-20,132.2554168701172,0.00838293717735783
2021-08-23,131.7007293701172,-0.004194062618582461
2021-08-24,131.7007293701172,0.0
2021-08-25,132.85964965820312,0.008799649733366666
2021-08-26,131.40357971191406,-0.01095945947497956
2021-08-27,133.255859375,0.014096112656495574
2021-08-30,133.94923400878906,0.005203333174549574
2021-08-31,133.52330017089844,-0.0031798154057579575
2021-09-01,133.7313232421875,0.0015579533386518296
2021-09-02,133.86007690429688,0.000962778644433282
2021-09-03,133.86997985839844,7.397989251600734e-05
2021-09-07,129.8385467529297,-0.0301145418093961
2021-09-08,129.64044189453125,-0.0015257784637362493
2021-09-09,127.4117431640625,-0.017191384863389336
2021-09-10,124.64816284179688,-0.021690153934296963
2021-09-13,123.5783920288086,-0.008582323145396309
2021-09-14,123.40009307861328,-0.001442800373658737
2021-09-15,123.44962310791016,0.00040137756837288485
2021-09-16,121.14169311523438,-0.01869531825673021
2021-09-17,120.08181762695312,-0.008749056258220311
2021-09-20,120.7058563232422,0.0051967792345359864
2021-09-21,118.9228973388672,-0.014771105882388613
2021-09-22,119.1408233642578,0.0018324984529229926
2021-09-23,119.86390686035156,0.006069149731180223
2021-09-24,119.22006225585938,-0.0053714635319063175
2021-09-27,119.19034576416016,-0.0002492574751005172
2021-09-28,118.8931884765625,-0.002493132188622349
2021-09-29,119.23987579345705,0.002915956089131866
2021-09-30,118.2196273803711,-0.008556268666810696
2021-10-01,120.4285125732422,0.01868458936826145
2021-10-04,121.1317901611328,0.005839793026280793
2021-10-05,120.50775146484376,-0.005151733458730545
2021-10-06,121.9341049194336,0.01183619673632319
2021-10-07,123.0831298828125,0.009423327166243611
2021-10-08,123.33075714111328,0.0020118700144897694
2021-10-11,123.39019012451172,0.0004818991205124412
2021-10-12,123.31094360351562,-0.0006422432846251436
2021-10-13,126.18347930908205,0.0232950589917027
2021-10-14,126.79759979248048,0.00486688500555732
2021-10-15,127.00562286376952,0.0016405915540158578
2021-10-18,126.60940551757812,-0.003119683501071391
2021-10-19,126.34196472167967,-0.0021123296077819598
2021-10-20,126.9461898803711,0.004782458148584912
2021-10-21,127.84757232666016,0.007100508074629808
2021-10-22,126.55988311767578,-0.010072066176542105
2021-10-25,126.57969665527344,0.00015655464519692686
2021-10-26,126.06307983398438,-0.004081356133251113
2021-10-27,124.50331115722656,-0.012372922181592805
2021-10-28,125.15901184082033,0.005266532090586029
2021-10-29,119.9928970336914,-0.04127641095232748
2021-11-01,124.36422729492188,0.036429908513693876
2021-11-02,126.56975555419922,0.01773442658914348
2021-11-03,127.563232421875,0.00784924378913221
2021-11-04,127.71226501464844,0.0011683036713945327
2021-11-05,130.64303588867188,0.02294823346596564
2021-11-08,129.78863525390625,-0.006539963105983704
2021-11-09,129.51046752929688,-0.0021432363786335618
2021-11-10,128.7355499267578,-0.005983436067542258
2021-11-11,128.9839324951172,0.001929401540605502
2021-11-12,130.63311767578125,0.012785973793491667
2021-11-15,131.45770263671875,0.006312219868961799
2021-11-16,133.3651885986328,0.014510263937788093
2021-11-17,133.5738067626953,0.0015642625054903547
2021-11-18,128.795166015625,-0.03577528306548872
2021-11-19,129.3018341064453,0.003933906112274732
2021-11-22,127.96063995361328,-0.010372584133090612
2021-11-23,128.85476684570312,0.00698751500784911
2021-11-24,127.34466552734376,-0.011719405927509308
2021-11-26,125.78490447998048,-0.012248342252140665
2021-11-29,125.04972839355467,-0.0058447083890167395
2021-11-30,118.81065368652344,-0.049892748966200995
2021-12-01,116.02890014648438,-0.023413334189529733
2021-12-02,118.8702621459961,0.024488398975811565
2021-12-03,118.02580261230467,-0.007104043672876426
2021-12-06,119.4365463256836,0.011952841515621593
2021-12-07,119.49615478515624,0.000499080568774124
2021-12-08,120.03263854980467,0.004489548350848471
2021-12-09,118.75104522705078,-0.010677040330344223
2021-12-10,118.9596710205078,0.001756833323514062
2021-12-13,117.8370361328125,-0.009437104844563393
2021-12-14,116.18785858154295,-0.01399540929908305
2021-12-15,117.5986099243164,0.012141985918290743
2021-12-16,117.91651916503906,0.0027033418245951957
2021-12-17,115.134765625,-0.02359087225213663
2021-12-20,112.92922973632812,-0.019156124361736415
2021-12-21,114.63802337646484,0.015131544278894626
2021-12-22,114.63802337646484,0.0
2021-12-23,115.5718994140625,0.008146302684676199
2021-12-27,119.10869598388672,0.030602565050461328
2021-12-28,120.64859771728516,0.012928541620561118
2021-12-29,121.30429077148438,0.005434734150294052
2021-12-30,121.08573150634766,-0.0018017438933668473
2021-12-31,121.68181610107422,0.004922831016595186
2022-01-03,120.42919921875,-0.010294199433083295
2022-01-04,120.98738861083984,0.004635000445996074
2022-01-05,122.66194915771484,0.013840785937295319
2022-01-06,122.1536102294922,-0.004144226728119538
2022-01-07,123.27995300292967,0.009220708019365143
2022-01-10,121.6552276611328,-0.013179152832401453
2022-01-11,122.12369537353516,0.003850781601488329
2022-01-12,120.90765380859376,-0.00995745797915737
2022-01-13,121.27645111083984,0.0030502395061764442
2022-01-14,120.78803253173828,-0.0040273158937935705
2022-01-18,119.98065948486328,-0.006684213907225067
2022-01-19,121.02725982666016,0.008723075421409154
2022-01-20,118.44564056396484,-0.021330890795947965
