Date,Adj Close,daily_return
2017-01-03,67.94324493408203,
2017-01-04,69.06913757324219,0.016571075465301677
2017-01-05,68.3619613647461,-0.010238671472424188
2017-01-06,68.38988494873047,0.00040846668859284563
2017-01-09,68.55738830566406,0.0024492416833157282
2017-01-10,67.75715637207031,-0.011672439008701851
2017-01-11,67.96184539794922,0.0030209211371698963
2017-01-12,68.23170471191406,0.003970747297762367
2017-01-13,68.38988494873047,0.0023182805923473992
2017-01-17,68.24101257324219,-0.0021768186274897516
2017-01-18,68.37126922607422,0.0019087737406040528
2017-01-19,67.67341613769531,-0.010206817809267354
2017-01-20,66.65918731689453,-0.014987108360794532
2017-01-23,67.41287231445312,0.01130654344727633
2017-01-24,68.42710876464844,0.015045145168482321
2017-01-25,68.32474517822266,-0.0014959507755596402
2017-01-26,68.22239685058594,-0.0014979686696195982
2017-01-27,68.33404541015625,0.001636538215079586
2017-01-30,67.97892761230469,-0.005196791668341416
2017-01-31,68.19388580322266,0.0031621297726835973
2017-02-01,69.10037231445312,0.013292782784752655
2017-02-02,68.53031921386719,-0.008249638627007894
2017-02-03,68.95085144042969,0.006136440503802687
2017-02-06,68.54898834228516,-0.005828254325354054
2017-02-07,67.9695816040039,-0.008452447691687293
2017-02-08,68.73591613769531,0.011274668985843173
2017-02-09,68.75457763671875,0.00027149560334738254
2017-02-10,69.8947525024414,0.016583257506824323
2017-02-13,69.55830383300781,-0.004813647053430015
2017-02-14,68.99759674072266,-0.008060965569707923
2017-02-15,68.4088134765625,-0.008533388001507825
2017-02-16,69.34337615966797,0.01366143681801546
2017-02-17,69.06300354003906,-0.004043250201480331
2017-02-21,69.70785522460938,0.009337150884213496
2017-02-22,69.39944458007812,-0.0044243312828590176
2017-02-23,69.26860809326172,-0.001885267059528628
2017-02-24,69.4928970336914,0.003237959396090506
2017-02-27,69.60502624511719,0.0016135348533738991
2017-02-28,69.63306427001953,0.0004028160955447113
2017-03-01,71.08161163330078,0.02080257961453702
2017-03-02,70.84797668457031,-0.0032868549736287944
2017-03-03,71.06293487548828,0.003034076638137595
2017-03-06,70.69845581054688,-0.005128961611000515
2017-03-07,70.53022766113281,-0.002379516603090548
2017-03-08,70.96949005126953,0.0062280018752693955
2017-03-09,70.88536071777344,-0.0011854295900296519
2017-03-10,71.7638168334961,0.01239263095831844
2017-03-13,71.72645568847656,-0.0005206125686739727
2017-03-14,71.52085876464844,-0.0028664029451151984
2017-03-15,72.18436431884766,0.009277091545874638
2017-03-16,71.94141387939453,-0.0033656934122184845
2017-03-17,72.03485870361328,0.0012989016920823548
2017-03-20,72.74510192871094,0.00985971566932542
2017-03-21,71.74515533447266,-0.013745895843519707
2017-03-22,71.81990814208984,0.0010419213293035856
2017-03-23,72.10962677001953,0.00403395987859656
2017-03-24,71.60496520996094,-0.006998532410493863
2017-03-27,71.60496520996094,0.0
2017-03-28,72.02552032470703,0.005873267496366186
2017-03-29,71.99748229980469,-0.000389279032986356
2017-03-30,71.82925415039062,-0.0023365837809931067
2017-03-31,71.95075225830078,0.0016914850271976256
2017-04-03,71.44608306884766,-0.007014091911664466
2017-04-04,71.71708679199219,0.003793122190944853
2017-04-05,71.10030364990234,-0.008600225827336772
2017-04-06,71.52085876464844,0.005914955255562626
2017-04-07,71.17507934570312,-0.0048346653678077445
2017-04-10,71.85728454589844,0.009584888509667655
2017-04-11,71.88533782958984,0.00039040278057655975
2017-04-12,71.2405014038086,-0.008970347017216329
2017-04-13,70.83865356445312,-0.005640721660249093
2017-04-17,72.21241760253906,0.019392859250719763
2017-04-18,72.49278259277344,0.0038825038621130847
2017-04-19,72.47409057617188,-0.00025784658738459143
2017-04-20,72.72642517089844,0.003481721436177976
2017-04-21,72.88529205322266,0.002184445089262965
2017-04-24,73.17501068115234,0.003974994402411447
2017-04-25,73.57684326171875,0.005491390801667606
2017-04-26,74.14692687988281,0.007748139127635945
2017-04-27,73.63292694091797,-0.006932181286454675
2017-04-28,75.04410552978516,0.019165048131245754
2017-05-01,74.80952453613281,-0.003125908317465842
2017-05-02,75.25052642822266,0.005894996590666057
2017-05-03,75.48507690429688,0.003116928042994349
2017-05-04,76.36707305908203,0.011684377773151011
2017-05-05,76.85499572753906,0.006389175974828021
2017-05-08,77.41797637939453,0.007325231711043267
2017-05-09,77.38980865478516,-0.0003638395877377798
2017-05-10,77.75575256347656,0.004728580094102375
2017-05-11,77.43671417236328,-0.004103084088252218
2017-05-12,77.34291076660156,-0.0012113557085199345
2017-05-15,77.53055572509766,0.002426142960436861
2017-05-16,77.68069458007812,0.001936512044526273
2017-05-17,77.20214080810547,-0.006160523854216171
2017-05-18,77.07078552246094,-0.001701446155114139
2017-05-19,77.27721405029297,0.0026784277133371504
2017-05-22,77.72759246826172,0.005828088182315172
2017-05-23,78.05598449707031,0.0042249093067263654
2017-05-24,78.24365234375,0.002404272367953153
2017-05-25,78.95675659179688,0.00911389265053697
2017-05-26,79.16316986083984,0.002614257195367342
2017-05-30,79.32268524169922,0.0020150201304443005
2017-05-31,79.76368713378906,0.005559593585946931
2017-06-01,80.9365463256836,0.014704174719597285
2017-06-02,81.002197265625,0.0008111408618454163
2017-06-05,80.55183410644531,-0.0055598881805988265
2017-06-06,80.20467376708984,-0.004309775726480836
2017-06-07,80.40170288085938,0.002456578956254951
2017-06-08,79.98887634277344,-0.005134549683576628
2017-06-09,80.36416625976562,0.004691776333798803
2017-06-12,80.16714477539062,-0.0024516086403255644
2017-06-13,80.86146545410156,0.0086609131540889
2017-06-14,80.92715454101562,0.0008123657733032363
2017-06-15,80.90838623046875,-0.00023191610595130197
2017-06-16,80.64563751220703,-0.003247484352404184
2017-06-19,81.39630889892578,0.009308270228567839
2017-06-20,81.52764129638672,0.0016134932804388047
2017-06-21,81.630859375,0.0012660501024190918
2017-06-22,81.46195220947266,-0.0020691582426127786
2017-06-23,81.4432144165039,-0.0002300189531496688
2017-06-26,81.7622299194336,0.0039170298620365696
2017-06-27,81.03974151611328,-0.008836456687057459
2017-06-28,81.5651626586914,0.006483499734184717
2017-06-29,81.15233612060547,-0.005061309566847916
2017-06-30,81.4994888305664,0.004277790715045082
2017-07-03,81.70590209960938,0.0025326940328680436
2017-07-05,81.9029769897461,0.002412003112045147
2017-07-06,81.92172241210938,0.0002288735165953959
2017-07-07,82.65360260009766,0.008933896486044812
2017-07-10,82.85063934326172,0.0023838857226512467
2017-07-11,82.72866821289062,-0.0014721809190361146
2017-07-12,83.48866271972656,0.009186591821836121
2017-07-13,83.16026306152344,-0.003933464107642615
2017-07-14,83.9109115600586,0.00902652866766207
2017-07-17,84.24870300292969,0.004025596154194178
2017-07-18,84.20177459716797,-0.0005570222933887203
2017-07-19,84.53016662597656,0.0039000606623751377
2017-07-20,84.16421508789062,-0.004329241887161772
2017-07-21,83.98595428466797,-0.002118011830045563
2017-07-24,84.2402114868164,0.003027377664682307
2017-07-25,83.51512908935547,-0.008607319291623727
2017-07-26,82.921875,-0.007103552324282836
2017-07-27,82.86538696289062,-0.0006812199689090193
2017-07-28,77.50739288330078,-0.06465901235686378
2017-07-31,76.20792388916016,-0.016765742541452466
2017-08-01,77.69573211669922,0.0195230121962513
2017-08-02,77.45088195800781,-0.0031513977926566072
2017-08-03,77.45088195800781,0.0
2017-08-04,77.55447387695312,0.0013375176153769264
2017-08-07,77.91230010986328,0.00461386964571342
2017-08-08,77.91230010986328,0.0
2017-08-09,77.66748046875,-0.0031422463560704106
2017-08-10,76.75408172607422,-0.011760375605892048
2017-08-11,77.3473129272461,0.00772898571425884
2017-08-14,78.07237243652344,0.009374074959259904
2017-08-15,77.92172241210938,-0.0019296201679608327
2017-08-16,78.67504119873047,0.009667635202376124
2017-08-17,77.33788299560547,-0.016995964447573453
2017-08-18,77.35671997070312,0.0002435672450296078
2017-08-21,76.73524475097656,-0.008033887940982143
2017-08-22,77.32847595214844,0.007730883026398683
2017-08-23,76.84822845458984,-0.0062104870378639765
2017-08-24,76.34915924072266,-0.006494218850628286
2017-08-25,77.58272552490234,0.016156907246225982
2017-08-28,77.08364868164062,-0.006432834627619899
2017-08-29,77.21546936035156,0.001710099106171814
2017-08-30,78.12889099121094,0.011829516007946461
2017-08-31,78.73155975341797,0.007713775974048209
2017-09-01,78.98580169677734,0.003229225283426951
2017-09-05,78.39254760742188,-0.007510895333226353
2017-09-06,78.01588439941406,-0.004804834381631373
2017-09-07,78.73155975341797,0.009173456912183298
2017-09-08,78.92928314208984,0.002511361254510014
2017-09-11,80.1534423828125,0.015509569984550664
2017-09-12,80.22876739501953,0.0009397601646012887
2017-09-13,79.56961059570312,-0.008215965678133097
2017-09-14,79.91802978515625,0.004378797217237329
2017-09-15,79.76734924316406,-0.0018854386475399831
2017-09-18,80.45475769042969,0.008617666924973566
2017-09-19,80.56775665283203,0.0014045031722937917
2017-09-20,81.09508514404297,0.006545155445784712
2017-09-21,81.12333679199219,0.0003483768208520921
2017-09-22,80.71842956542969,-0.004991254583138316
2017-09-25,81.69774627685547,0.012132504518462595
2017-09-26,81.6883316040039,-0.00011523785270228792
2017-09-27,81.49057006835938,-0.0024209275885717085
2017-09-28,81.99906158447266,0.006239881690442539
2017-09-29,81.27400207519531,-0.008842290329510782
2017-10-02,82.75238800048828,0.01819014552679654
2017-10-03,83.27030181884766,0.006258596650483561
2017-10-04,82.9972152709961,-0.003279519130910069
2017-10-05,82.9972152709961,0.0
2017-10-06,83.41155242919922,0.0049921814466937775
2017-10-09,83.29855346679688,-0.0013547159729254687
2017-10-10,83.30796813964844,0.0001130232454193969
2017-10-11,83.20438385009766,-0.0012433899405294158
2017-10-12,83.32678985595703,0.0014711485164038418
2017-10-13,83.65637969970703,0.003955388708958285
2017-10-16,83.75055694580078,0.0011257628698708722
2017-10-17,83.78822326660156,0.00044974412319609414
2017-10-18,83.43038177490234,-0.004270785054847348
2017-10-19,83.4680404663086,0.0004513786297641875
2017-10-20,83.99536895751953,0.006317729375997505
2017-10-23,83.83528900146484,-0.0019058188331269044
2017-10-24,83.92005920410156,0.001011151791165732
2017-10-25,83.32678985595703,-0.007069458169728482
2017-10-26,83.75055694580078,0.005085604408573641
2017-10-27,82.79946899414062,-0.011356198529827721
2017-10-30,81.41524505615234,-0.01671778762356846
2017-10-31,82.29424285888672,0.01079647677935669
2017-11-01,82.6156005859375,0.003904984308584325
2017-11-02,81.85002136230469,-0.009266763398233069
2017-11-03,82.17138671875,0.003926270892744332
2017-11-06,81.14115142822266,-0.012537640310897435
2017-11-07,81.01830291748047,-0.001514009951545492
2017-11-08,81.02774047851562,0.00011648677762066129
2017-11-09,80.11095428466797,-0.011314473147510995
2017-11-10,80.25271606445312,0.0017695679829430322
2017-11-13,80.89541625976562,0.008008454128783926
2017-11-14,80.91431427001953,0.00023361039633229552
2017-11-15,80.79144287109375,-0.0015185372332977565
2017-11-16,81.38688659667969,0.007370133573873616
2017-11-17,80.95214080810547,-0.005341717895275266
2017-11-20,80.78199768066406,-0.0021017742797528882
2017-11-21,81.79330444335938,0.012518962042670223
2017-11-22,81.14115142822266,-0.007973183374542891
2017-11-24,81.51922607421875,0.004659468584575555
2017-11-27,81.98233795166016,0.005681014157565389
2017-11-28,82.14302825927734,0.0019600600767439857
2017-11-29,82.75736999511719,0.007478927291318271
2017-11-30,83.56074523925781,0.009707597573340276
2017-12-01,82.79515838623047,-0.009162039553803125
2017-12-04,83.22993469238281,0.00525122863011096
2017-12-05,84.11837768554688,0.010674560738846539
2017-12-06,83.33391571044922,-0.009325690731104563
2017-12-07,83.5323715209961,0.0023814530837171777
2017-12-08,83.07872009277344,-0.005430845790229122
2017-12-11,82.49273681640625,-0.0070533498314950815
2017-12-12,81.68933868408203,-0.009739016588966365
2017-12-13,81.93508911132812,0.003008353736299485
2017-12-14,81.63262939453125,-0.0036914552736485584
2017-12-15,82.20916748046875,0.007062593600300371
2017-12-18,81.82167053222656,-0.004713549110374471
2017-12-19,81.83112335205078,0.00011552953835747282
2017-12-20,81.5948257446289,-0.0028876251203993064
2017-12-21,81.05607604980469,-0.00660274337137956
2017-12-22,81.18840789794922,0.0016325962789418558
2017-12-26,80.7063980102539,-0.005936929916167122
2017-12-27,80.92378234863281,0.0026935205106202176
2017-12-28,81.99179077148438,0.013197707668314518
2017-12-29,81.54754638671875,-0.005418156873823632
2018-01-02,82.2375259399414,0.008461070673427828
2018-01-03,82.40764617919922,0.002068644907703643
2018-01-04,81.29237365722656,-0.013533604873842031
2018-01-05,82.14302825927734,0.010464137824756081
2018-01-08,82.41710662841797,0.003336599282358188
2018-01-09,81.65153503417969,-0.009288988967908085
2018-01-10,80.9710464477539,-0.008334057481478196
2018-01-11,81.51922607421875,0.0067700696793953075
2018-01-12,81.81221771240234,0.0035941415576841163
2018-01-16,81.509765625,-0.003696906108395237
2018-01-17,82.07685089111328,0.006957267779694742
2018-01-18,82.45491790771484,0.004606256362139405
2018-01-19,83.74977111816406,0.015703771749532747
2018-01-22,82.662841796875,-0.012978296021316837
2018-01-23,82.79515838623047,0.0016006779645998392
2018-01-24,83.36225891113281,0.006849440667253459
2018-01-25,84.5248031616211,0.013945690360041674
2018-01-26,84.2507095336914,-0.003242759730603395
2018-01-29,82.91806030273438,-0.015817661813567474
2018-01-30,83.18367767333984,0.0032033717339225998
2018-01-31,82.92752838134766,-0.003079321558708714
2018-02-01,82.37733459472656,-0.006634633846688276
2018-02-02,81.39078521728516,-0.011975980799754593
2018-02-05,79.09513854980469,-0.028205240450155267
2018-02-06,79.48407745361328,0.00491735536392901
2018-02-07,79.54098510742188,0.0007159629403989953
2018-02-08,77.19792938232422,-0.02945721280586744
2018-02-09,77.93783569335938,0.009584535711712583
2018-02-12,78.35523986816406,0.005355603874438231
2018-02-13,85.10931396484375,0.08619811652728893
2018-02-14,86.00103759765625,0.010477391853738194
2018-02-15,86.48482513427734,0.005625368601765324
2018-02-16,87.11092376708984,0.007239404506402369
2018-02-20,86.3804702758789,-0.008385325968577328
2018-02-21,85.52671813964844,-0.00988362454503644
2018-02-22,85.95359802246094,0.004991187456947488
2018-02-23,86.3140640258789,0.004193727914959089
2018-02-26,86.1148681640625,-0.002307803068532177
2018-02-27,84.90064239501953,-0.014100071159949712
2018-02-28,84.82476806640625,-0.0008936837987663093
2018-03-01,84.42633056640625,-0.0046971834887667985
2018-03-02,85.07138061523438,0.007640389491057498
2018-03-05,85.75438690185547,0.00802862586314701
2018-03-06,86.10538482666016,0.004093060862371933
2018-03-07,85.50774383544922,-0.006940808550058186
2018-03-08,85.32750701904297,-0.0021078420306949175
2018-03-09,86.20022583007812,0.010227871896461016
2018-03-12,86.1148681640625,-0.000990225549801771
2018-03-13,85.8492431640625,-0.003084542839849047
2018-03-14,85.44134521484375,-0.00475132842393533
2018-03-15,85.64055633544922,0.00233155412177255
2018-03-16,85.51722717285156,-0.001440078951782886
2018-03-19,85.33699035644531,-0.002107608283906881
2018-03-20,85.16625213623047,-0.002000752774402814
2018-03-21,84.98599243164062,-0.0021165626062951137
2018-03-22,83.43978118896484,-0.018193718734525466
2018-03-23,82.3109130859375,-0.013529135466820219
2018-03-26,83.67694854736328,0.01659604310305185
2018-03-27,83.55362701416016,-0.0014737814337639765
2018-03-28,83.81922912597656,0.003178822048878871
2018-03-29,85.21367645263672,0.016636365440254375
2018-04-02,83.41133880615234,-0.021150802564963267
2018-04-03,84.95755004882812,0.01853718289151507
2018-04-04,85.09984588623047,0.0016749051416919958
2018-04-05,85.75438690185547,0.0076914477201293074
2018-04-06,83.95201873779297,-0.02101779546421667
2018-04-09,85.28008270263672,0.015819321379175966
2018-04-10,87.95515441894531,0.031368071319024304
2018-04-11,87.50931549072266,-0.005068934631153654
2018-04-12,87.93620300292969,0.004878195079154546
2018-04-13,87.983642578125,0.000539477184314352
2018-04-16,89.46347045898438,0.016819352296597145
2018-04-17,91.18993377685548,0.01929796942834483
2018-04-18,90.6966552734375,-0.005409352578597648
2018-04-19,89.92827606201172,-0.008471968553958598
2018-04-20,89.5867691040039,-0.00379754814572808
2018-04-23,89.50140380859375,-0.0009528783799653828
2018-04-24,88.39153289794922,-0.012400597794176349
2018-04-25,88.36306762695312,-0.00032203617318138367
2018-04-26,88.48638153076172,0.001395536700119937
2018-04-27,88.65713500976562,0.0019297147883095
2018-04-30,88.6950912475586,0.00042812389311697174
2018-05-01,88.73303985595703,0.0004278546632587865
2018-05-02,87.80338287353516,-0.010477010411578558
2018-05-03,86.43739318847656,-0.015557369663376841
2018-05-04,87.51881408691406,0.01251103091551431
2018-05-07,88.03105926513672,0.0058529721131042045
2018-05-08,87.34569549560547,-0.007785476799353708
2018-05-09,88.48796081542969,0.013077522748464299
2018-05-10,89.27803039550781,0.00892855449258323
2018-05-11,89.75397491455078,0.005331037400069238
2018-05-14,88.87825775146484,-0.009756862177075165
2018-05-15,87.66931915283203,-0.013602186060098442
2018-05-16,89.04006958007812,0.015635463358127488
2018-05-17,88.80209350585938,-0.0026726851780447536
2018-05-18,89.05908966064453,0.0028940326138617856
2018-05-21,89.4874496459961,0.0048098401520138
2018-05-22,89.4398422241211,-0.0005320011025381488
2018-05-23,89.5635986328125,0.001383683217835996
2018-05-24,89.50648498535156,-0.0006376881716766425
2018-05-25,89.55408477783203,0.0005318027234368916
2018-05-29,88.82112884521484,-0.008184505870787673
2018-05-30,89.4398422241211,0.006965835572574797
2018-05-31,87.87873077392578,-0.017454318023990112
2018-06-01,88.30709838867188,0.004874531197407661
2018-06-04,89.34465026855469,0.01174935989082293
2018-06-05,89.40176391601562,0.0006392508929102814
2018-06-06,89.39226531982422,-0.00010624618324450719
2018-06-07,88.75448608398438,-0.007134613196768447
2018-06-08,89.15428161621094,0.00450451069986757
2018-06-11,89.30658721923828,0.0017083375051238914
2018-06-12,89.62071990966797,0.003517463831178791
2018-06-13,89.78252410888672,0.0018054329331635977
2018-06-14,90.29656219482422,0.005725369063071639
2018-06-15,90.35364532470705,0.0006321739000392235
2018-06-18,90.27751922607422,-0.0008425348900893415
2018-06-19,89.71590423583984,-0.006220983862305407
2018-06-20,90.08714294433594,0.004137936430091527
2018-06-21,88.6212158203125,-0.016272323398347943
2018-06-22,88.17381286621094,-0.005048485850258633
2018-06-25,87.74549102783203,-0.004857698952282052
2018-06-26,88.24999237060547,0.0057495984906326125
2018-06-27,87.66931915283203,-0.006579867059193667
2018-06-28,88.24999237060547,0.00662344846959706
2018-06-29,88.88776397705078,0.007226874352203927
2018-07-02,89.087646484375,0.0022487066653609222
2018-07-03,89.4684066772461,0.0042739954179604744
2018-07-05,89.99195098876953,0.0058517227585386244
2018-07-06,89.55408477783203,-0.00486561527032725
2018-07-09,90.52500915527344,0.010841765396297554
2018-07-10,91.48641967773438,0.010620385807549315
2018-07-11,91.07709503173828,-0.004474157448044913
2018-07-12,91.13422393798828,0.0006272587661046991
2018-07-13,90.30607604980467,-0.009087122843632445
2018-07-16,88.80209350585938,-0.016654278535099154
2018-07-17,90.08714294433594,0.014470936300525095
2018-07-18,90.068115234375,-0.00021121449009320337
2018-07-19,91.69583892822266,0.01807214117462097
2018-07-20,91.17230224609376,-0.005709492254481696
2018-07-23,90.5630874633789,-0.006682016003834779
2018-07-24,90.1918487548828,-0.004099227609109746
2018-07-25,90.1728057861328,-0.00021113846775389078
2018-07-26,91.44835662841795,0.014145626623956353
2018-07-27,97.94976806640624,0.07109380285974365
2018-07-30,97.56900787353516,-0.0038873006071126204
2018-07-31,97.8268814086914,0.002642986136442982
2018-08-01,97.8268814086914,0.0
2018-08-02,98.35216522216795,0.005369524264829284
2018-08-03,99.42183685302734,0.010875933726960607
2018-08-06,99.5269012451172,0.0010567536812378098
2018-08-07,98.89655303955078,-0.006333445507501367
2018-08-08,98.33307647705078,-0.00569763601644091
2018-08-09,99.23081970214844,0.009129615967086835
2018-08-10,97.77912139892578,-0.014629510343460606
2018-08-13,96.8431625366211,-0.009572175009490036
2018-08-14,97.39710235595705,0.005719968295402111
2018-08-15,96.78585815429688,-0.00627579452442284
2018-08-16,97.1010284423828,0.00325636713974764
2018-08-17,98.1420669555664,0.010721189362081107
2018-08-20,98.23756408691406,0.0009730499296585204
2018-08-21,98.64822387695312,0.004180272524629602
2018-08-22,98.54318237304688,-0.0010648088711386894
2018-08-23,98.28532409667967,-0.0026167033594576283
2018-08-24,99.13532257080078,0.008648274622211183
2018-08-27,99.84205627441406,0.007128979714657646
2018-08-28,99.22128295898438,-0.0062175533897609325
2018-08-29,99.99486541748048,0.007796537551483684
2018-08-30,99.99486541748048,0.0
2018-08-31,100.0044174194336,9.552492433706483e-05
2018-09-04,101.59935760498048,0.01594869733461346
2018-09-05,103.31846618652344,0.016920467039042375
2018-09-06,104.05387878417967,0.007117920201492156
2018-09-07,103.05106353759766,-0.00963746146034572
2018-09-10,103.681396484375,0.00611670491442684
2018-09-11,103.64319610595705,-0.00036844004530467434
2018-09-12,104.47410583496094,0.008017021475818176
2018-09-13,105.83983612060548,0.013072428567151517
2018-09-14,106.93815612792967,0.010377189228379491
2018-09-17,106.29827117919922,-0.005983691620462972
2018-09-18,106.5752410888672,0.0026055918557796875
2018-09-19,106.13591003417967,-0.004122261889336842
2018-09-20,105.524658203125,-0.005759142507543613
2018-09-21,105.3623275756836,-0.0015383193862512634
2018-09-24,105.41961669921876,0.0005437344148839784
2018-09-25,103.8724136352539,-0.01467661439501633
2018-09-26,103.7196044921875,-0.0014711234457590594
2018-09-27,103.47127532958984,-0.002394235533518252
2018-09-28,102.89825439453124,-0.005537971125158636
2018-10-01,102.92691040039062,0.0002784887462670138
2018-10-02,103.28983306884766,0.0035260231463787317
2018-10-03,103.14656829833984,-0.001387017156009196
2018-10-04,102.27745819091795,-0.008425972107070856
2018-10-05,102.35386657714844,0.0007470696630713647
2018-10-08,102.83139038085938,0.0046654202687204105
2018-10-09,100.96903228759766,-0.01811079366294721
2018-10-10,97.81732940673828,-0.031214549743154407
2018-10-11,97.00553131103516,-0.008299123484833193
2018-10-12,97.0819320678711,0.0007875917569171165
2018-10-15,97.55946350097656,0.004918849706983863
2018-10-16,100.85443115234376,0.03377394189272298
2018-10-17,100.30049896240234,-0.00549239318106598
2018-10-18,99.58419036865234,-0.007141625427192655
2018-10-19,99.63195037841795,0.00047959429693422706
2018-10-22,99.29767608642578,-0.0033550913208317823
2018-10-23,99.02071380615234,-0.0027892121063576303
2018-10-24,95.58248901367188,-0.03472227840339848
2018-10-25,96.73810577392578,0.012090255989134269
2018-10-26,95.84990692138672,-0.009181478647253605
2018-10-29,95.65889739990234,-0.0019927981947966966
2018-10-30,97.14427947998048,0.015527903001730126
2018-10-31,97.7096710205078,0.00582012181832936
2018-11-01,98.87882995605467,0.011965641919943426
2018-11-02,99.47298431396484,0.006008913719693476
2018-11-05,97.63300323486328,-0.018497294434175804
2018-11-06,99.7604751586914,0.02179049966034885
2018-11-07,100.7283706665039,0.00970219424349028
2018-11-08,100.7475357055664,0.00019026455938564446
2018-11-09,99.94255828857422,-0.007990045725234651
2018-11-12,97.527587890625,-0.024163583955658097
2018-11-13,98.11216735839844,0.005993990832922291
2018-11-14,97.8246841430664,-0.0029301484522492593
2018-11-15,100.42171478271484,0.02654780500850218
2018-11-16,101.84959411621094,0.014218830425128948
2018-11-19,100.7954559326172,-0.0103499497738887
2018-11-20,99.96172332763672,-0.008271529676276645
2018-11-21,99.18548583984376,-0.007765347194433003
2018-11-23,99.56881713867188,0.0038647922685692837
2018-11-26,99.36756134033205,-0.002021273367740606
2018-11-27,98.03551483154295,-0.013405245039946778
2018-11-28,99.6933822631836,0.016910886167011974
2018-11-29,99.5208969116211,-0.001730158488425504
2018-11-30,99.71257781982422,0.0019260367837454773
2018-12-03,100.10547637939452,0.003940310923264301
2018-12-04,98.6488265991211,-0.014551149776789396
2018-12-06,97.39342498779295,-0.012725965980616372
2018-12-07,95.61096954345705,-0.01830159935908726
2018-12-10,94.97847747802734,-0.006615266725668145
2018-12-11,94.5568389892578,-0.004439305619181821
2018-12-12,95.76429748535156,0.012769658006767104
2018-12-13,96.1380386352539,0.003902719068758609
2018-12-14,96.15721893310548,0.00019950789639411326
2018-12-17,94.52808380126952,-0.016942411083761932
2018-12-18,93.85726165771484,-0.007096538050691548
2018-12-19,91.60521697998048,-0.023994357367331576
2018-12-20,91.04939270019533,-0.006067605078721949
2018-12-21,89.65027618408203,-0.015366566152948069
2018-12-24,85.96074676513672,-0.041154691050471204
2018-12-26,87.9444580078125,0.02307694287598161
2018-12-27,88.51943969726562,0.006538009358157071
2018-12-28,88.835693359375,0.0035727029361116713
2018-12-31,90.1485824584961,0.014778846761626996
2019-01-02,86.42073822021484,-0.04135222248222847
2019-01-03,85.37616729736328,-0.012087040036499297
2019-01-04,87.27363586425781,0.02222480379431513
2019-01-07,88.11695098876953,0.009662885201934035
2019-01-08,89.62152862548828,0.017074780956850333
2019-01-09,89.58317565917969,-0.00042794367488263596
2019-01-10,90.63731384277344,0.01176714462104167
2019-01-11,90.78106689453124,0.0015860250669736953
2019-01-14,90.04317474365234,-0.008128260397469944
2019-01-15,90.85774230957033,0.009046410993803988
2019-01-16,90.76190948486328,-0.00105475683492684
2019-01-17,91.9310531616211,0.012881435432479549
2019-01-18,93.61767578125,0.01834660391264853
2019-01-22,92.4197769165039,-0.01279564841521108
2019-01-23,93.32059478759766,0.009747024945835792
2019-01-24,93.08101654052734,-0.0025672601810522444
2019-01-25,93.33020782470705,0.0026771439917741002
2019-01-28,93.79975128173828,0.005030991229689974
2019-01-29,94.18441772460938,0.004100932439742966
2019-01-30,94.20365142822266,0.00020421322420349775
2019-01-31,95.31918334960938,0.011841705756349352
2019-02-01,95.73268127441406,0.004338034698514681
2019-02-04,96.02117919921876,0.0030135782364408836
2019-02-05,97.19439697265624,0.01221832290773417
2019-02-06,97.69445037841795,0.005144878936821806
2019-02-07,98.04064178466795,0.0035436138379307813
2019-02-08,97.50213623046876,-0.005492676755237236
2019-02-11,97.8002471923828,0.003057481337735757
2019-02-12,98.3964614868164,0.006096245270840628
2019-02-13,98.85806274414062,0.004691238387531493
2019-02-14,97.8675537109375,-0.01001950681318442
2019-02-15,98.0310287475586,0.0016703701116709269
2019-02-19,97.6559829711914,-0.0038257863980288853
2019-02-20,98.3387680053711,0.00699173786803331
2019-02-21,99.1657943725586,0.00840997283128786
2019-02-22,98.13682556152344,-0.010376247349659695
2019-02-25,97.66560363769533,-0.0048016829679568
2019-02-26,97.42518615722656,-0.002461639221118528
2019-02-27,97.5213623046875,0.0009871795092670776
2019-02-28,97.8290786743164,0.003155373985317178
2019-03-01,96.94436645507812,-0.009043448340994686
2019-03-04,97.71369171142578,0.007935739687402465
2019-03-05,97.57906341552734,-0.0013777833335376632
2019-03-06,96.63664245605467,-0.009658024236812945
2019-03-07,96.0500259399414,-0.006070332134935574
2019-03-08,96.6174087524414,0.005907159388533367
2019-03-11,98.10797882080078,0.015427551697009267
2019-03-12,98.3387680053711,0.0023523997471384117
2019-03-13,98.3580093383789,0.00019566375904522815
2019-03-14,98.9446029663086,0.005963862342024839
2019-03-15,99.0984878540039,0.0015552630773374432
2019-03-18,99.7331771850586,0.006404631844531661
2019-03-19,99.62738800048828,-0.0010607220942536744
2019-03-20,99.96397399902344,0.00337844848982205
2019-03-21,101.49299621582033,0.015295732608747947
2019-03-22,99.84856414794922,-0.01620241917357823
2019-03-25,100.50249481201172,0.006549224514571295
2019-03-26,101.3968276977539,0.00889861378481216
2019-03-27,101.4737548828125,0.0007586744753780295
2019-03-28,102.1180648803711,0.00634952356205476
2019-03-29,102.31040954589844,0.0018835518059676648
2019-04-01,103.57979583740234,0.012407205651292275
2019-04-02,103.10857391357422,-0.004549361388661577
2019-04-03,103.34899139404295,0.002331692422302911
2019-04-04,103.954833984375,0.0058621045271949335
2019-04-05,104.57028198242188,0.005920340348380293
2019-04-08,104.81069946289062,0.0022990994755962557
2019-04-09,104.01252746582033,-0.007615367526031092
2019-04-10,104.85879516601562,0.008136209366447655
2019-04-11,105.45502471923828,0.00568602330666379
2019-04-12,106.08008575439452,0.005927275981589153
2019-04-15,105.67619323730467,-0.0038074301525827803
2019-04-16,105.41654205322266,-0.002457045206946007
2019-04-17,103.5701675415039,-0.01751503583551961
2019-04-18,104.06060791015624,0.004735343973020001
2019-04-22,104.75299835205078,0.006653722823648511
2019-04-23,105.83967590332033,0.010373713100005677
2019-04-24,105.72428894042967,-0.0010902051797291312
2019-04-25,105.25305938720705,-0.004457155096007748
2019-04-26,107.14752197265624,0.017999121322258338
2019-04-29,107.0513687133789,-0.0008973913489279672
2019-04-30,107.3214874267578,0.002523262585293118
2019-05-01,108.836181640625,0.014113615550668923
2019-05-02,109.0194854736328,0.0016842177871791986
2019-05-03,109.83954620361328,0.00752214823265529
2019-05-06,110.96833038330078,0.01027666463219945
2019-05-07,109.95532989501952,-0.00912873506145595
2019-05-08,109.97462463378906,0.00017547797626504824
2019-05-09,109.0194854736328,-0.008685086794675057
2019-05-10,109.59835052490234,0.0053097393438859
2019-05-13,108.82655334472656,-0.007042051057149945
2019-05-14,109.00020599365234,0.0015956827041623267
2019-05-15,109.25103759765624,0.0023012030272540063
2019-05-16,110.09040832519533,0.0076829542858007915
2019-05-17,109.77201080322266,-0.002892145890059372
2019-05-20,109.05809783935548,-0.006503597398310745
2019-05-21,109.48258972167967,0.0038923462882094473
2019-05-22,109.16421508789062,-0.0029079932672254616
2019-05-23,108.98088836669922,-0.0016793664576235656
2019-05-24,108.95196533203124,-0.00026539547531179153
2019-05-28,108.92301940917967,-0.0002656760046810813
2019-05-29,108.73004913330078,-0.0017716206998814599
2019-05-30,109.51153564453124,0.0071874014355715055
2019-05-31,109.2799835205078,-0.0021144085201676432
2019-06-03,110.01321411132812,0.0067096513670568125
2019-06-04,111.64368438720705,0.01482067667097664
2019-06-05,113.00401306152344,0.012184555550840193
2019-06-06,115.99481964111328,0.026466374941583215
2019-06-07,117.6252899169922,0.014056405975056308
2019-06-10,118.87947845458984,0.01066257552676575
2019-06-11,118.26203155517578,-0.005193889706118782
2019-06-12,117.33585357666016,-0.007831575073894426
2019-06-13,116.46753692626952,-0.007400267044747166
2019-06-14,115.85974884033205,-0.00521851927135919
2019-06-17,115.93692779541016,0.0006661412254955756
2019-06-18,115.28087615966795,-0.005658694328177449
2019-06-19,115.2037124633789,-0.0006693538326527637
2019-06-20,115.58960723876952,0.0033496730889925885
2019-06-21,115.17475128173828,-0.0035890420163318115
2019-06-24,114.59588623046876,-0.005025971793535811
2019-06-25,116.79557800292967,0.019195207130184633
2019-06-26,115.0396728515625,-0.015034003695954423
2019-06-27,117.26831817626952,0.01937284129434791
2019-06-28,119.96002960205078,0.022953441028592758
2019-07-01,119.89248657226562,-0.0005630461246901586
2019-07-02,119.18822479248048,-0.0058741110466554725
2019-07-03,121.48438262939452,0.019264972197647
2019-07-05,120.22051239013672,-0.010403561444711884
2019-07-08,119.62235260009766,-0.004975521881806055
2019-07-09,119.69953918457033,0.0006452521856905591
2019-07-10,119.22679901123048,-0.003949390085879134
2019-07-11,119.65130615234376,0.0035605010336081655
2019-07-12,119.06280517578124,-0.00491846679728869
2019-07-15,118.5900650024414,-0.0039705109638722424
2019-07-16,118.82160186767578,0.0019524136800972425
2019-07-17,119.1785659790039,0.003004202146051238
2019-07-18,119.97931671142578,0.006718915652693447
2019-07-19,119.05314636230467,-0.007719416767047682
2019-07-22,118.82160186767578,-0.0019448834550265248
2019-07-23,120.12405395507812,0.010961408253465699
2019-07-24,118.947021484375,-0.009798474426639725
2019-07-25,118.5900650024414,-0.0030009703267810384
2019-07-26,120.10476684570312,0.012772586331161406
2019-07-29,120.53890228271484,0.0036146395219220917
2019-07-30,119.79387664794922,-0.006180789941310549
2019-07-31,117.09437561035156,-0.022534549453900432
2019-08-01,113.74662017822266,-0.028590232576746866
2019-08-02,114.19168853759766,0.003912805133705399
2019-08-05,113.28218841552734,-0.007964678810847614
2019-08-06,115.8365478515625,0.022548641333318686
2019-08-07,117.71361541748048,0.01620445015612293
2019-08-08,118.88436889648438,0.009945777936152256
2019-08-09,117.1524429321289,-0.014568155430622731
2019-08-12,116.12682342529295,-0.008754572087157686
2019-08-13,117.28790283203124,0.009998373954362316
2019-08-14,115.22696685791016,-0.01757159881247561
2019-08-15,114.49163818359376,-0.006381567565022728
2019-08-16,116.34935760498048,0.01622580872157453
2019-08-19,116.32032775878906,-0.00024950585709271333
2019-08-20,115.0237808227539,-0.011146348716655763
2019-08-21,115.4592056274414,0.003785519842705032
2019-08-22,116.62995147705078,0.010139909098171751
2019-08-23,116.3590316772461,-0.0023229007332477014
2019-08-26,117.06535339355467,0.006070192456291368
2019-08-27,117.5588150024414,0.0042152660422747346
2019-08-28,117.90714263916016,0.002963007382402738
2019-08-29,117.74264526367188,-0.0013951434307224453
2019-08-30,118.25546264648438,0.0043554090505109055
2019-09-03,115.76882934570312,-0.021027640035664596
2019-09-04,117.98454284667967,0.019139119860667186
2019-09-05,117.26853942871094,-0.006068620521750723
2019-09-06,116.95892333984376,-0.002640231475342869
2019-09-09,115.23664855957033,-0.014725467122068792
2019-09-10,115.246337890625,8.408202751275518e-05
2019-09-11,114.78191375732422,-0.004029838533711527
2019-09-12,114.22071838378906,-0.004889231719220621
2019-09-13,114.55936431884766,0.0029648380771054583
2019-09-16,112.70166015625,-0.01621608302074018
2019-09-17,113.2144546508789,0.004550017221733649
2019-09-18,114.4626235961914,0.011024819658951746
2019-09-19,114.02721405029295,-0.003803945185063329
2019-09-20,114.22071838378906,0.0016970013264618888
2019-09-23,114.2690887451172,0.00042348150154003505
2019-09-24,114.66580200195312,0.0034717460442938997
2019-09-25,115.2560043334961,0.005147152169510116
2019-09-26,115.06250762939452,-0.0016788427225161717
2019-09-27,114.82061767578124,-0.002102248235301696
2019-09-30,114.60774993896484,-0.001853915621822133
2019-10-01,113.85304260253906,-0.006585133525679576
2019-10-02,111.60830688476562,-0.019716080189528307
2019-10-03,111.25997924804688,-0.003120983074121897
2019-10-04,113.52407836914062,0.02034962738979207
2019-10-07,112.77904510498048,-0.006562777472965298
2019-10-08,111.0567855834961,-0.015271095085804487
2019-10-09,112.70166015625,0.014811112748416733
2019-10-10,112.53716278076172,-0.0014595825408447727
2019-10-11,112.5565185546875,0.0001719945078364482
2019-10-14,112.09207916259766,-0.0041262771632740725
2019-10-15,111.44381713867188,-0.005783299130221575
2019-10-16,111.72441864013672,0.0025178741061577803
2019-10-17,112.7693862915039,0.00935308202169316
2019-10-18,113.95948028564452,0.01055334282891529
2019-10-21,114.07559204101562,0.0010188863188922426
2019-10-22,112.87582397460938,-0.010517307383115515
2019-10-23,113.56278228759766,0.006085964990544035
2019-10-24,113.53374481201172,-0.0002556953519543548
2019-10-25,114.05623626708984,0.004602080693658639
2019-10-28,114.36585998535156,0.0027146583860322426
2019-10-29,115.01610565185548,0.0056856623697596476
2019-10-30,115.73428344726562,0.00624414982006094
2019-10-31,114.66671752929688,-0.009224284163431906
2019-11-01,107.52369689941406,-0.062293756931323996
2019-11-04,105.46620178222656,-0.019135271354297267
2019-11-05,105.4564971923828,-9.201611207920735e-05
2019-11-06,106.26202392578124,0.007638474203528034
2019-11-07,106.1746826171875,-0.0008219428293096964
2019-11-08,105.78646850585938,-0.003656371761692312
2019-11-11,105.3788604736328,-0.0038531207061137662
2019-11-12,105.02947235107422,-0.003315542804204097
2019-11-13,106.3882064819336,0.01293669386739027
2019-11-14,107.21314239501952,0.007754016543422226
2019-11-15,106.71817779541016,-0.004616641099704943
2019-11-18,107.08697509765624,0.003455805841747983
2019-11-19,107.24225616455078,0.0014500462521509494
2019-11-20,107.43634796142578,0.0018098444010463677
2019-11-21,108.01868438720705,0.0054202924506550065
2019-11-22,106.87346649169922,-0.010602035212747496
2019-11-25,107.67898559570312,0.007537129003544196
2019-11-26,109.24150848388672,0.014510936182574374
2019-11-27,109.50357818603516,0.0023989938054278515
2019-11-29,108.81450653076172,-0.006292686199740216
2019-12-02,108.7077407836914,-0.0009811720006296376
2019-12-03,109.38710021972656,0.006249411781879877
2019-12-04,108.4845199584961,-0.008251249547866712
2019-12-05,108.64949798583984,0.0015207517847419805
2019-12-06,108.77567291259766,0.0011613024367056468
2019-12-09,109.3094482421875,0.004907120455313052
2019-12-10,108.63980102539062,-0.006126160433206018
2019-12-11,109.251220703125,0.005627952849356577
2019-12-12,110.81375885009766,0.014302248861993272
2019-12-13,110.6099624633789,-0.001839089196445709
2019-12-16,110.94963836669922,0.003070934080036114
2019-12-17,110.00821685791016,-0.008485124626342433
2019-12-18,109.74617767333984,-0.002381996473124981
2019-12-19,109.92089080810548,0.0015919746679986524
2019-12-20,111.57076263427734,0.015009629325622331
2019-12-23,111.96868133544922,0.00356651412768616
2019-12-24,111.34754180908205,-0.005547439864066028
2019-12-26,111.43489837646484,0.0007845397030190604
2019-12-27,111.62899780273438,0.0017418190270501732
2019-12-30,112.3471908569336,0.006433749906707753
2019-12-31,112.21131134033205,-0.001209460740096091
2020-01-02,110.32848358154295,-0.016779304477411827
2020-01-03,110.67788696289062,0.003166937222421229
2020-01-06,110.68759155273438,8.768318685925536e-05
2020-01-07,109.58120727539062,-0.009995558326125864
2020-01-08,109.88207244873048,0.0027455909714861892
2020-01-09,111.27962493896484,0.012718657912885956
2020-01-10,112.37630462646484,0.009855170594810225
2020-01-13,112.77420806884766,0.0035408126624685288
2020-01-14,112.70626831054688,-0.0006024405709796898
2020-01-15,113.2691650390625,0.004994369319057279
2020-01-16,114.73464965820312,0.012938072057256056
2020-01-17,113.8611831665039,-0.007612926821158994
2020-01-21,112.22100830078124,-0.014405039716864465
2020-01-22,112.25983428955078,0.0003459778998373686
2020-01-23,113.90970611572266,0.014696902383771304
2020-01-24,113.66708374023438,-0.0021299534847522006
2020-01-27,113.05565643310548,-0.005379106131782163
2020-01-28,112.89989471435548,-0.00137774370309518
2020-01-29,112.87068939208984,-0.0002586833436782898
2020-01-30,113.45479583740234,0.005175005561306012
2020-01-31,112.45207977294922,-0.008838022730129125
2020-02-03,114.13628387451172,0.014977082726820745
2020-02-04,113.85393524169922,-0.002473785050886468
2020-02-05,114.74960327148438,0.007866816618009365
2020-02-06,114.41859436035156,-0.002884619220422824
2020-02-07,113.61055755615234,-0.0070621109157692485
2020-02-10,112.73439025878906,-0.00771202356726608
2020-02-11,112.97776794433594,0.0021588592885293245
2020-02-12,111.6732406616211,-0.011546760981838378
2020-02-13,113.1238021850586,0.012989338491866897
2020-02-14,113.58135986328124,0.00404475158529527
2020-02-18,112.2086944580078,-0.012085305255419732
2020-02-19,111.96531677246094,-0.0021689735071103167
2020-02-20,111.88742065429688,-0.0006957164987293485
2020-02-21,109.0155258178711,-0.025667718673211604
2020-02-24,106.31884765625,-0.02473664316517954
2020-02-25,104.10894775390624,-0.020785589301050456
2020-02-26,101.90877532958984,-0.021133365304173313
2020-02-27,99.68914794921876,-0.02178053237508193
2020-02-28,98.3943328857422,-0.012988525733374057
2020-03-02,100.837890625,0.02483433412872782
2020-03-03,100.03960418701172,-0.007916532496271445
2020-03-04,104.59571075439452,0.04554302872756
2020-03-05,101.22730255126952,-0.032204075853879854
2020-03-06,104.4594268798828,0.031929373273344774
2020-03-09,98.7642822265625,-0.05452015986904757
2020-03-10,101.2370376586914,0.025036940241781602
2020-03-11,96.45702362060548,-0.04721605993847
2020-03-12,91.90090942382812,-0.047234654623990124
2020-03-13,93.83824157714844,0.021080663569777558
2020-03-16,85.55352783203125,-0.08828718021432624
2020-03-17,93.89664459228516,0.09751926041710512
2020-03-18,94.18870544433594,0.003110450360808592
2020-03-19,96.26232147216795,0.022015548658936623
2020-03-20,90.06095123291016,-0.06442157372083301
2020-03-23,81.70809936523438,-0.09274665383085001
2020-03-24,85.72875213623047,0.049207518009001916
2020-03-25,87.79264068603516,0.0240746365527984
2020-03-26,93.65325164794922,0.06675515072923743
2020-03-27,91.51152801513672,-0.022868652130343836
2020-03-30,97.8199691772461,0.06893602695679957
2020-03-31,96.90486145019533,-0.009355019580844726
2020-04-01,93.66300964355467,-0.03345396462185557
2020-04-02,93.6045913696289,-0.0006237069911385618
2020-04-03,91.69647216796876,-0.02038488896474422
2020-04-06,98.09255981445312,0.06975282140372929
2020-04-07,98.44303131103516,0.0035728652330508925
2020-04-08,101.35386657714844,0.029568728505691366
2020-04-09,104.43021392822266,0.030352540608133305
2020-04-13,99.64045715332033,-0.045865622550523955
2020-04-14,101.26625061035156,0.01631659973748989
2020-04-15,98.25804138183594,-0.029705940630610495
2020-04-16,99.1536865234375,0.00911523503833167
2020-04-17,100.21483612060548,0.010702069024101757
2020-04-20,104.10894775390624,0.038857636095061876
2020-04-21,103.31066131591795,-0.007667798543841586
2020-04-22,103.48589324951172,0.001696165055588228
2020-04-23,102.23978424072266,-0.012041341768047609
2020-04-24,101.36359405517578,-0.008569953390002216
2020-04-27,109.59964752197266,0.08125257932659435
2020-04-28,108.58391571044922,-0.009267655822705057
2020-04-29,107.50959777832033,-0.009893895657563823
2020-04-30,104.57965087890624,-0.0272528868116082
2020-05-01,103.6615982055664,-0.008778501989864629
2020-05-04,104.3159637451172,0.006312516407986912
2020-05-05,103.09515380859376,-0.011703002040093557
2020-05-06,102.41150665283205,-0.006631224946140324
2020-05-07,103.00724792480467,0.005817132189961383
2020-05-08,105.01915740966795,0.019531727382251507
2020-05-11,103.82762908935548,-0.011345818703005328
2020-05-12,101.52274322509766,-0.02219915724237731
2020-05-13,100.0284652709961,-0.01471865226088731
2020-05-14,100.06754302978516,0.0003906663836459323
2020-05-15,99.12995147705078,-0.00936958702438917
2020-05-18,101.71807861328124,0.02610842734881813
2020-05-19,101.30787658691406,-0.0040327347110704626
2020-05-20,101.97200012207033,0.006555497534157739
2020-05-21,102.63612365722656,0.006512802870996204
2020-05-22,102.6458969116211,9.522236466352751e-05
2020-05-26,106.9919891357422,0.04234063274699751
2020-05-27,109.92192840576172,0.027384660231919433
2020-05-28,108.99411010742188,-0.008440702522202193
2020-05-29,108.7890167236328,-0.0018816923555496912
2020-06-01,108.81832122802734,0.0002693700639742058
2020-06-02,109.45314025878906,0.005833751371990603
2020-06-03,110.63488006591795,0.010796764755536481
2020-06-04,109.52149963378906,-0.010063557093979103
2020-06-05,110.75208282470705,0.011235996539791016
2020-06-08,110.9278793334961,0.0015872975415487378
2020-06-09,109.84378051757812,-0.009773005870406193
2020-06-10,109.0331802368164,-0.007379573763231839
2020-06-11,101.81572723388672,-0.06619501501518732
2020-06-12,102.89982604980467,0.010647655773529108
2020-06-15,102.94864654541016,0.0004744468234751942
2020-06-16,104.88241577148438,0.018783823692342105
2020-06-17,104.4136199951172,-0.004469727102668686
2020-06-18,104.49176025390624,0.0007483722793317771
2020-06-19,105.0875015258789,0.005701322961016997
2020-06-22,105.03868103027344,-0.0004645699526261149
2020-06-23,104.93125915527344,-0.0010226887271084228
2020-06-24,103.46627807617188,-0.013961340890170204
2020-06-25,105.0875015258789,0.015669099921749252
2020-06-26,105.20471954345705,0.0011154325288555977
2020-06-29,106.69898986816406,0.014203453335472904
2020-06-30,109.36524200439452,0.024988541499079364
2020-07-01,109.85355377197266,0.004464963078109507
2020-07-02,112.28543090820312,0.02213744619749325
2020-07-06,112.5686492919922,0.0025223074934861422
2020-07-07,112.46121978759766,-0.0009543465704725529
2020-07-08,110.29305267333984,-0.019279242376641248
2020-07-09,111.10367584228516,0.00734972103225906
2020-07-10,112.26588439941406,0.0104605770089794
2020-07-13,110.78138732910156,-0.01322304703921473
2020-07-14,113.59412384033205,0.025389973704468938
2020-07-15,115.14701080322266,0.013670486732864306
2020-07-16,114.5024185180664,-0.005597994083040625
2020-07-17,116.61197662353516,0.018423699104101354
2020-07-20,116.50455474853516,-0.000921190756819068
2020-07-21,115.42046356201172,-0.009305139948076357
2020-07-22,115.73300170898438,0.002707822662700865
2020-07-23,115.67439270019533,-0.0005064156975417289
2020-07-24,116.07482147216795,0.0034616889929171
2020-07-27,117.05147552490234,0.008414004349501125
2020-07-28,115.640869140625,-0.012051162772204749
2020-07-29,116.3853530883789,0.006437896509136287
2020-07-30,115.50371551513672,-0.00757515915746465
2020-07-31,112.8490219116211,-0.02298362084436778
2020-08-03,116.23841857910156,0.03003478993495312
2020-08-04,116.19922637939452,-0.00033717079246375903
2020-08-05,115.94452667236328,-0.002191922570978555
2020-08-06,115.25881958007812,-0.005914096266250057
2020-08-07,116.81637573242188,0.013513552871861734
2020-08-10,114.61228942871094,-0.01886795656766127
2020-08-11,114.35759735107422,-0.002222205654439313
2020-08-12,115.68003845214844,0.01156408609228099
2020-08-13,116.10126495361328,0.003641306720684412
2020-08-14,116.07188415527344,-0.00025306182797901755
2020-08-17,115.83677673339844,-0.0020255329151070978
2020-08-18,115.47432708740234,-0.0031289686765911817
2020-08-19,115.28821563720705,-0.0016117127927008923
2020-08-20,115.15106964111328,-0.00118959249508499
2020-08-21,115.39596557617188,0.002126736085229952
2020-08-24,116.67923736572266,0.011120594928456962
2020-08-25,115.71922302246094,-0.008227807833990353
2020-08-26,116.17963409423828,0.003978691350943198
2020-08-27,117.60004425048828,0.012225982353308629
2020-08-28,115.71922302246094,-0.015993371771367615
2020-08-31,115.9739227294922,0.0022010146661788355
2020-09-01,117.06127166748048,0.009375805460374975
2020-09-02,119.76494598388672,0.023096232237132863
2020-09-03,116.73800659179688,-0.02527400122985146
2020-09-04,116.29719543457033,-0.003776072335789915
2020-09-08,113.69146728515624,-0.02240576945709838
2020-09-09,115.484130859375,0.0157677934591387
2020-09-10,114.79842376708984,-0.0059376737494794
2020-09-11,115.94452667236328,0.009983611862116826
2020-09-14,116.64984893798828,0.006083273491797492
2020-09-15,115.91514587402344,-0.00629836275532103
2020-09-16,115.36656951904295,-0.004732568387367353
2020-09-17,113.59351348876952,-0.01536888925158486
2020-09-18,112.69229125976562,-0.007933747282964254
2020-09-21,111.13472747802734,-0.013821387109327343
2020-09-22,111.99677276611328,0.0077567589145919325
2020-09-23,109.8514633178711,-0.01915510059135639
2020-09-24,109.96902465820312,0.0010701845636034157
2020-09-25,109.81228637695312,-0.00142529482040199
2020-09-28,110.06697845458984,0.0023193404494141756
2020-09-29,110.3216781616211,0.0023140428728707363
2020-09-30,110.88983917236328,0.005150039595208433
2020-10-01,111.37962341308594,0.0044168540993314576
2020-10-02,110.54698181152344,-0.0074757085366897735
2020-10-05,112.21229553222656,0.01506430744117826
2020-10-06,112.22208404541016,8.723209107497354e-05
2020-10-07,112.63351440429688,0.0036662156329250184
2020-10-08,114.14208221435548,0.013393596195921065
2020-10-09,114.4261703491211,0.0024888991794638216
2020-10-12,115.63107299804688,0.010529956960453557
2020-10-13,115.16085815429688,-0.004066509386779993
2020-10-14,114.06372833251952,-0.009526933364002788
2020-10-15,113.96575164794922,-0.0008589644228065296
2020-10-16,113.97555541992188,8.602384339928548e-05
2020-10-19,112.80004119873048,-0.010313739791487975
2020-10-20,114.57311248779295,0.01571871136056302
2020-10-21,115.3371810913086,0.006668829945569055
2020-10-22,115.8955535888672,0.004841218523596202
2020-10-23,115.93473815917967,0.00033810244741117046
2020-10-26,115.06289672851562,-0.00752010522909019
2020-10-27,113.6381378173828,-0.012382435621227761
2020-10-28,110.38570404052734,-0.0286209703830429
2020-10-29,110.97527313232422,0.005340991362254854
2020-10-30,112.10526275634766,0.010182354970877716
2020-11-02,116.13395690917967,0.03593670853426456
2020-11-03,117.4801025390625,0.011591318040903076
2020-11-04,116.97898864746094,-0.004265521401251249
2020-11-05,120.77183532714844,0.032423315704309896
2020-11-06,121.44982147216795,0.0056137769471082954
2020-11-09,121.02730560302734,-0.003478933637110715
2020-11-10,125.39006805419922,0.0360477532688519
2020-11-11,123.09076690673828,-0.018337187172329128
2020-11-12,122.10816955566406,-0.007982705573836402
2020-11-13,122.89425659179688,0.006437628530451933
2020-11-16,124.65311431884766,0.01431196034565696
2020-11-17,125.1444091796875,0.003941296320789656
2020-11-18,124.17163848876952,-0.007773185372757951
2020-11-19,125.01667785644533,0.006805413683513839
2020-11-20,125.58657836914062,0.004558595880700844
2020-11-23,124.65311431884766,-0.007432832890384211
2020-11-24,125.6553726196289,0.00804037914542266
2020-11-25,124.09303283691406,-0.01243352950330423
2020-11-27,125.02650451660156,0.007522353659566772
2020-11-30,124.12250518798828,-0.007230461509809216
2020-12-01,125.59642028808594,0.011874680565505447
2020-12-02,124.06355285644533,-0.012204706377177077
2020-12-03,123.68034362792967,-0.003088813915873123
2020-12-04,125.4588623046875,0.014379962284938319
2020-12-07,126.39234161376952,0.007440521075466
2020-12-08,126.94258880615234,0.004353485229859011
2020-12-09,127.27666473388672,0.0026317087974669917
2020-12-10,128.2003173828125,0.00725704630033297
2020-12-11,128.1806640625,-0.00015330165099214366
2020-12-14,126.17615509033205,-0.015638154060354736
2020-12-15,127.99398040771484,0.01440704320147801
2020-12-16,128.8193817138672,0.006448750976593587
2020-12-17,130.82386779785156,0.015560438633657858
2020-12-18,131.76718139648438,0.007210561914362756
2020-12-21,132.5434112548828,0.005890919500378233
2020-12-22,132.16021728515625,-0.0028910827486526847
2020-12-23,132.18968200683594,0.00022294698272262714
2020-12-24,133.33934020996094,0.008697034334839815
2020-12-28,133.31967163085938,-0.00014750769780769168
2020-12-29,132.95611572265625,-0.0027269487222392197
2020-12-30,134.01731872558594,0.007981603532577042
2020-12-31,134.5086212158203,0.0036659626897950215
2021-01-04,131.6688995361328,-0.021111819108837193
2021-01-05,131.37411499023438,-0.002238832001611346
2021-01-06,135.32421875,0.03006759558425376
2021-01-07,137.26976013183594,0.014376889811794635
2021-01-08,136.65072631835938,-0.004509615321553917
2021-01-11,136.37557983398438,-0.002013501807037521
2021-01-12,135.7467041015625,-0.004611351483802539
2021-01-13,136.16925048828125,0.0031127561403083703
2021-01-14,137.0240936279297,0.006277798670280665
2021-01-15,136.41488647460938,-0.0044459856452291335
2021-01-19,134.87217712402344,-0.01130895161411194
2021-01-20,138.17373657226562,0.024479173678691346
2021-01-21,135.7073974609375,-0.017849550663618485
2021-01-22,135.78602600097656,0.000579397597405773
2021-01-25,137.1420135498047,0.009986208365935667
2021-01-26,136.78736877441406,-0.00258596739402428
2021-01-27,131.2705535888672,-0.04033132031836251
2021-01-28,133.24082946777344,0.015009275309960657
2021-01-29,130.9947052001953,-0.016857627474627712
2021-02-01,132.09805297851562,0.008422842561720989
2021-02-02,134.90573120117188,0.021254501178097573
2021-02-03,134.53135681152344,-0.0027750814314194683
2021-02-04,135.94996643066406,0.010544825033825145
2021-02-05,138.57044982910156,0.01927535156673965
2021-02-08,139.87086486816406,0.009384504709815777
2021-02-09,140.0580291748047,0.001338122180176926
2021-02-10,141.12200927734375,0.007596709084140452
2021-02-11,140.8461456298828,-0.001954788263528684
2021-02-12,142.4814910888672,0.011610864121775588
2021-02-16,141.46678161621094,-0.007121693245218497
2021-02-17,141.0825958251953,-0.0027157314715612335
2021-02-18,138.89556884765625,-0.01550174892053191
2021-02-19,130.2755584716797,-0.062061089835278915
2021-02-22,127.18219757080078,-0.023744752562710136
2021-02-23,126.37437438964844,-0.006351700132423366
2021-02-24,126.84724426269533,0.003741817716848894
2021-02-25,128.36436462402344,0.011960215376742633
2021-02-26,128.13778686523438,-0.0017651141689728478
2021-03-01,128.65989685058594,0.0040745981191376845
2021-03-02,128.4136199951172,-0.0019141695392057567
2021-03-03,129.1032257080078,0.005370191362231269
2021-03-04,128.46286010742188,-0.004960105350382604
2021-03-05,132.09805297851562,0.028297617444092094
2021-03-08,135.66429138183594,0.026996903609929346
2021-03-09,135.6446075439453,-0.00014509225449177432
2021-03-10,137.3094940185547,0.012273886185044214
2021-03-11,137.3094940185547,0.0
2021-03-12,138.6788330078125,0.009972646094470239
2021-03-15,140.0186309814453,0.009661156966595863
2021-03-16,138.412841796875,-0.011468396550621263
2021-03-17,139.18125915527344,0.005551633420879387
2021-03-18,139.40782165527344,0.001627823324598987
2021-03-19,137.24050903320312,-0.015546564004347063
2021-03-22,139.48666381835938,0.0163665582485768
2021-03-23,138.6788330078125,-0.00579145553010596
2021-03-24,139.73294067382812,0.007601071073018328
2021-03-25,140.3535919189453,0.004441696010434315
2021-03-26,142.66868591308594,0.016494725660299414
2021-03-29,142.61940002441406,-0.0003454569470269231
2021-03-30,140.9545135498047,-0.011673632579609627
2021-03-31,139.5654754638672,-0.00985451299824247
2021-04-01,141.73277282714844,0.015528893202834793
2021-04-05,142.54058837890625,0.005699567825029339
2021-04-06,143.8015899658203,0.008846614155695987
2021-04-07,141.4569549560547,-0.01630465289238392
2021-04-08,141.54559326171875,0.0006266097392779724
2021-04-09,143.0430145263672,0.010579073711462605
2021-04-12,144.03802490234375,0.006956022139712026
2021-04-13,144.15623474121094,0.0008206849472376376
2021-04-14,143.64395141601562,-0.003553667492182777
2021-04-15,145.0133056640625,0.009532975350148964
2021-04-16,145.8802490234375,0.005978371125359816
2021-04-19,147.48602294921875,0.01100748001549734
2021-04-20,148.18548583984375,0.0047425706967896275
2021-04-21,149.68289184570312,0.010104943796437338
2021-04-22,147.8406982421875,-0.012307309010401779
2021-04-23,149.20018005371094,0.009195585706017084
2021-04-26,148.67803955078125,-0.0034995970027765777
2021-04-27,149.76446533203125,0.007307237736874583
2021-04-28,149.25088500976562,-0.003429253535723653
2021-04-29,149.05335998535156,-0.0013234429022055405
2021-04-30,148.9447021484375,-0.0007289861625712213
2021-05-03,150.57431030273438,0.010941027984149532
2021-05-04,153.10264587402344,0.01679128110370076
2021-05-05,152.2730255126953,-0.005418719948254602
2021-05-06,154.5841064453125,0.015177218189734498
2021-05-07,155.61122131347656,0.00664437562038378
2021-05-10,153.5569305419922,-0.013201430810352965
2021-05-11,152.08538818359375,-0.00958304098163787
2021-05-12,149.73480224609375,-0.015455698706981824
2021-05-13,152.7075958251953,0.019853724949098206
2021-05-14,151.6409454345703,-0.006984920330001088
2021-05-17,151.2162628173828,-0.002800580120167706
2021-05-18,149.05335998535156,-0.014303374463388807
2021-05-19,147.6904296875,-0.00914390858405012
2021-05-20,147.88795471191406,0.001337426025721511
2021-05-21,147.77931213378906,-0.0007346276330389978
2021-05-24,147.41387939453125,-0.0024728274477754386
2021-05-25,145.90280151367188,-0.010250580793788044
2021-05-26,146.0312042236328,0.0008800565076805267
2021-05-27,144.95469665527344,-0.007371763960193123
2021-05-28,145.48797607421875,0.0036789385321782664
2021-06-01,145.06332397460938,-0.0029188123380914366
2021-06-02,143.85841369628906,-0.008306098642350213
2021-06-03,143.6016082763672,-0.0017851261759638248
2021-06-04,143.7596435546875,0.001100511896887424
2021-06-07,140.7572479248047,-0.020884829397484372
2021-06-08,141.01402282714844,0.0018242392923235595
2021-06-09,140.4115753173828,-0.004272252487286909
2021-06-10,143.19671630859375,0.019835551199503865
2021-06-11,144.02630615234375,0.005793358012220029
2021-06-14,141.7152557373047,-0.016046029900916525
2021-06-15,142.54486083984375,0.005854028193526872
2021-06-16,140.85598754882812,-0.011848012485789705
2021-06-17,139.75973510742188,-0.007782789077576346
2021-06-18,138.3671875,-0.009963868394223363
2021-06-21,139.82887268066406,0.010563813625712903
2021-06-22,139.8782501220703,0.00035312765139017266
2021-06-23,138.4363250732422,-0.010308429277387843
2021-06-24,138.44618225097656,7.120369403890159e-05
2021-06-25,139.17703247070312,0.005278948164866515
2021-06-28,138.9696502685547,-0.0014900605255546706
2021-06-29,138.54495239257812,-0.003056047670522588
2021-06-30,139.09800720214844,0.003991879891828809
2021-07-01,139.3745574951172,0.001988168619603936
2021-07-02,138.67335510253906,-0.005031064529856466
2021-07-06,138.3177947998047,-0.0025640131261803756
2021-07-07,139.2758026123047,0.006926135671021738
2021-07-08,137.5474395751953,-0.012409643345732801
2021-07-09,139.43380737304688,0.013714306886972727
2021-07-12,138.68321228027344,-0.0053831642907467
2021-07-13,136.78697204589844,-0.013673177908100187
2021-07-14,136.7277069091797,-0.0004332659450847487
2021-07-15,136.84622192382812,0.0008667958918315843
2021-07-16,137.32028198242188,0.003464180829614971
2021-07-19,135.4339141845703,-0.013736993331349479
2021-07-20,135.32528686523438,-0.0008020688170312651
2021-07-21,134.3771514892578,-0.007006342997231352
2021-07-22,133.00433349609375,-0.010216156377401697
2021-07-23,134.55491638183594,0.011658138084558844
2021-07-26,135.02899169921875,0.003523284991218789
2021-07-27,135.06846618652344,0.0002923408284987161
2021-07-28,135.94747924804688,0.006507907332786056
2021-07-29,137.33016967773438,0.010170769162734405
2021-07-30,127.32545471191406,-0.07285154448798736
2021-08-02,128.30320739746094,0.007679161152490233
2021-08-03,127.4117431640625,-0.006948105596743526
2021-08-04,125.56935119628906,-0.014460142542756627
2021-08-05,126.2924346923828,0.0057584393739791295
2021-08-06,127.213623046875,0.007294089758709488
2021-08-09,128.84800720214844,0.0128475560724437
2021-08-10,127.9763412475586,-0.006765071292272995
2021-08-11,130.38333129882812,0.018808086149403325
2021-08-12,131.42335510253906,0.007976662303000204
2021-08-13,131.7898712158203,0.002788820244280732
2021-08-16,131.62147521972656,-0.0012777612918217773
2021-08-17,131.750244140625,0.0009783275919335033
2021-08-18,130.79934692382812,-0.007217422806305551
2021-08-19,131.1559295654297,0.002726180596369643
2021-08-20,132.2554168701172,0.008383054493460662
2021-08-23,131.7007293701172,-0.004194062618582461
2021-08-24,131.7007293701172,0.0
2021-08-25,132.85964965820312,0.008799649733366666
2021-08-26,131.403564453125,-0.010959574323913035
2021-08-27,133.255859375,0.014096230414934796
2021-08-30,133.94923400878906,0.005203333174549574
2021-08-31,133.52330017089844,-0.0031798154057579575
2021-09-01,133.73130798339844,0.0015578390605517356
2021-09-02,133.86007690429688,0.0009628928546367987
2021-09-03,133.86997985839844,7.397989251600734e-05
2021-09-07,129.83851623535156,-0.03011476977371008
2021-09-08,129.6404266357422,-0.001525661301075787
2021-09-09,127.4117431640625,-0.017191269185975022
2021-09-10,124.64816284179688,-0.021690153934296963
2021-09-13,123.57839965820312,-0.008582261937959634
2021-09-14,123.40009307861328,-0.0014428620218663868
2021-09-15,123.4496078491211,0.0004012539153943617
2021-09-16,121.14169311523438,-0.01869519696415256
2021-09-17,120.0818328857422,-0.008748930300024771
2021-09-20,120.70584869384766,0.005196587969299227
2021-09-21,118.92290496826172,-0.0147709804030135
2021-09-22,119.14081573486328,0.001832370027117225
2021-09-23,119.86389923095705,0.006069150119828892
2021-09-24,119.22006225585938,-0.005371400223324163
2021-09-27,119.19034576416016,-0.0002492574751005172
2021-09-28,118.89318084716795,-0.0024931961987945117
2021-09-29,119.2398681640625,0.0029159562762492985
2021-09-30,118.2196273803711,-0.0085562052306839
2021-10-01,120.42850494384766,0.0186845248324925
2021-10-04,121.13178253173828,0.005839793396243964
2021-10-05,120.50775909423828,-0.005151607814707915
2021-10-06,121.93411254882812,0.011836195986969056
2021-10-07,123.0831298828125,0.009423264006815701
2021-10-08,123.33075714111328,0.0020118700144897694
2021-10-11,123.39019012451172,0.0004818991205124412
2021-10-12,123.31094360351562,-0.0006422432846251436
2021-10-13,126.18348693847656,0.023295120862890206
2021-10-14,126.79759979248048,0.004866824248590751
2021-10-15,127.00562286376952,0.0016405915540158578
2021-10-18,126.60940551757812,-0.003119683501071391
2021-10-19,126.34196472167967,-0.0021123296077819598
2021-10-20,126.9461898803711,0.004782458148584912
2021-10-21,127.84757995605467,0.007100568174066568
2021-10-22,126.55987548828124,-0.010072184926895433
2021-10-25,126.57969665527344,0.00015661493752050504
2021-10-26,126.06307983398438,-0.004081356133251113
2021-10-27,124.50331115722656,-0.012372922181592805
2021-10-28,125.15901184082033,0.005266532090586029
2021-10-29,119.9928970336914,-0.04127641095232748
2021-11-01,124.36421966552734,0.036429844931642696
2021-11-02,126.56975555419922,0.01773448902428343
2021-11-03,127.563232421875,0.00784924378913221
2021-11-04,127.7122573852539,0.0011682438626676728
2021-11-05,130.64303588867188,0.02294829457580616
2021-11-08,129.78863525390625,-0.006539963105983704
2021-11-09,129.51046752929688,-0.0021432363786335618
2021-11-10,128.7355499267578,-0.005983436067542258
2021-11-11,128.98391723632812,0.0019292830124360005
2021-11-12,130.6331024169922,0.012785975306071506
2021-11-15,131.45770263671875,0.006312337412720748
2021-11-16,133.36517333984375,0.014510147864033929
2021-11-17,133.5738067626953,0.001564377098059344
2021-11-18,128.79515075683594,-0.035775397300378264
2021-11-19,129.3018341064453,0.003934025051657297
2021-11-22,127.96063232421876,-0.010372643137624982
2021-11-23,128.85476684570312,0.006987575047447958
2021-11-24,127.34466552734376,-0.011719405927509308
2021-11-26,125.78490447998048,-0.012248342252140665
2021-11-29,125.04972839355467,-0.0058447083890167395
2021-11-30,118.8106460571289,-0.04989280997708545
2021-12-01,116.02890014648438,-0.023413271478272768
2021-12-02,118.8702621459961,0.024488398975811565
2021-12-03,118.02580261230467,-0.007104043672876426
2021-12-06,119.4365463256836,0.011952841515621593
2021-12-07,119.49615478515624,0.000499080568774124
2021-12-08,120.03263854980467,0.004489548350848471
2021-12-09,118.75104522705078,-0.010677040330344223
2021-12-10,118.9596710205078,0.001756833323514062
2021-12-13,117.83704376220705,-0.009437040710269073
2021-12-14,116.18785095214844,-0.013995537883542353
2021-12-15,117.59860229492188,0.01214198671558564
2021-12-16,117.91651916503906,0.0027034068765536823
2021-12-17,115.134765625,-0.02359087225213663
2021-12-20,112.92922973632812,-0.019156124361736415
2021-12-21,114.63802337646484,0.015131544278894626
2021-12-22,114.63802337646484,0.0
2021-12-23,115.5718994140625,0.008146302684676199
2021-12-27,119.10869598388672,0.030602565050461328
2021-12-28,120.64859771728516,0.012928541620561118
2021-12-29,121.30429077148438,0.005434734150294052
2021-12-30,121.08572387695312,-0.0018018067880466448
2021-12-31,121.68181610107422,0.004922894334982386
2021-08-20,132.69236755371094,0.09048641617487752
2021-08-23,132.13584899902344,-0.004194050983846065
2021-08-24,132.13584899902344,0.0
2021-08-25,133.298583984375,0.008799542245043313
2021-08-26,131.83770751953125,-0.01095942973418973
2021-08-27,133.69610595703125,0.014096107043007233
2021-08-30,134.3917694091797,0.005203318729208206
2021-08-31,133.9644317626953,-0.0031797903127778193
2021-09-01,134.1731414794922,0.0015579487334860254
2021-09-02,134.3023223876953,0.0009627926034874168
2021-09-03,134.312255859375,7.396351383270883e-05
2021-09-07,130.2675018310547,-0.03011455657892581
2021-09-08,130.06874084472656,-0.0015257910340976677
2021-09-09,127.83268737792967,-0.01719132092980158
2021-09-10,125.05997467041016,-0.0216901698962344
2021-08-20,132.69236755371094,0.06102986109996911
2021-08-23,132.13584899902344,-0.004194050983846065
2021-08-24,132.13584899902344,0.0
2021-08-25,133.298583984375,0.008799542245043313
2021-08-26,131.83770751953125,-0.01095942973418973
2021-08-27,133.69610595703125,0.014096107043007233
2021-08-30,134.3917694091797,0.005203318729208206
2021-08-31,133.9644317626953,-0.0031797903127778193
2021-09-01,134.1731414794922,0.0015579487334860254
2021-09-02,134.3023223876953,0.0009627926034874168
2021-09-03,134.312255859375,7.396351383270883e-05
2021-09-07,130.2675018310547,-0.03011455657892581
2021-09-08,130.06874084472656,-0.0015257910340976677
2021-09-09,127.83268737792967,-0.01719132092980158
2021-09-10,125.05997467041016,-0.0216901698962344
